# k  (h/Mpc)    P(k)  (Mpc/h)^3    P_linear(k)  (Mpc/h)^3
     0.00783031         439.365         449.953 
       0.013688         537.786         546.868 
       0.019231         539.078         546.355 
      0.0249154         491.852         499.772 
      0.0312784          425.17         430.195 
      0.0375637         363.748         367.099 
      0.0433917         318.477         322.126 
      0.0492413         287.212         290.075 
      0.0555754         262.031         265.622 
      0.0619321         243.748         245.753 
       0.067871         224.164         227.116 
      0.0738098         203.968         206.674 
      0.0800417         181.301         183.935 
      0.0862327         160.335         162.176 
      0.0921407         142.773         144.205 
      0.0982031         128.252         129.731 
       0.104506         118.137         118.911 
       0.110769         110.524         111.385 
       0.116806          104.47         105.737 
       0.122832         99.4182         100.346 
       0.129052         92.9714         94.1646 
       0.135211         86.1403         87.2454 
       0.141259         79.3728         80.0856 
       0.147318         72.8222         73.2161 
       0.153489         66.6509         67.1335 
       0.159709         61.8503         62.2505 
       0.165845         58.5527         58.6153 
       0.171974         55.4418         55.8455 
       0.178125         53.1752         53.4994 
       0.184229         50.9963         51.2102 
        0.19034         48.2299         48.7206 
       0.196428         45.7665         46.0047 
       0.202534         43.2207          43.169 
       0.208729         40.3281         40.3849 
       0.214876         37.7572          37.902 
       0.220989         35.9283          35.811 
       0.227147         33.9813          34.085 
        0.23329          32.569         32.6581 
       0.239377         31.3883         31.4112 
       0.245482         30.0631         30.2101 
       0.251667         29.0192         28.9636 
       0.257832         27.6899         27.6688 
       0.263955         26.4354         26.3608 
       0.270079         25.1924         25.0843 
        0.27624         24.1388         23.8895 
       0.282372         23.0847         22.8243 
        0.28843         22.0766         21.8991 
       0.294538         21.2546         21.0761 
       0.300721         20.6076         20.3193 
        0.30691         19.7772         19.6021 
       0.313033         19.1035         18.9038 
       0.319153         18.2649          18.207 
       0.325316         17.7895         17.5083 
        0.33145         17.0848         16.8306 
       0.337538         16.4565         16.1898 
       0.343633         15.8197         15.5923 
       0.349808         15.3177         15.0358 
       0.355968         14.8134         14.5258 
       0.362074         14.3237         14.0561 
       0.368217         13.8886         13.6081 
       0.374374         13.4057          13.175 
       0.380519         13.0369         12.7528 
       0.386598         12.6552          12.344 
       0.392688         12.2959         11.9461 
        0.39888         11.8845         11.5566 
       0.405048         11.5353         11.1876 
       0.411186         11.2037         10.8412 
       0.417313         10.8381          10.515 
       0.423458         10.5536         10.2057 
       0.429607         10.2307         9.91107 
       0.435692         9.94352         9.63072 
       0.441815         9.68561         9.35762 
       0.447964          9.4694         9.09186 
       0.454126         9.15203         8.83368 
       0.460267         8.91965         8.58504 
       0.466387         8.64994         8.34687 
        0.47254         8.45274         8.11769 
       0.478662         8.25614         7.89955 
       0.484765         8.01563         7.69128 
       0.490885         7.81852           7.491 
       0.497035         7.68442         7.29733 
       0.503198         7.46746         7.10999 
       0.509342          7.2912         6.92907 
       0.515458         7.10264         6.75466 
       0.521598         6.94303         6.58529 
       0.527764         6.75853         6.42102 
       0.533884         6.63519         6.26368 
           0.54         6.47142         6.11199 
       0.546137         6.33409         5.96515 
       0.552299         6.19536         5.82295 
       0.558452         6.02315         5.68589 
       0.564573         5.91735         5.55402 
       0.570708         5.78758         5.42598 
       0.576825         5.64323         5.30218 
       0.582926         5.54048         5.18244 
       0.589034         5.38445         5.06621 
       0.595184         5.28632         4.95284 
       0.601379         5.16944         4.84229 
       0.607522         5.08542         4.73613 
       0.613639          5.0025         4.63369 
       0.619772         4.86644          4.5341 
       0.625918         4.79198         4.43728 
       0.632068         4.71057         4.34325 
       0.638161         4.59775         4.25279 
         0.6443         4.50357         4.16426 
       0.650464         4.40347         4.07796 
       0.656582         4.34395         3.99474 
       0.662703         4.26006         3.91386 
       0.668861         4.19009         3.83479 
       0.675024         4.09808         3.75787 
       0.681124         4.01492         3.68387 
       0.687237         3.95601         3.61173 
       0.693381         3.88553         3.54122 
       0.699536         3.78512         3.47248 
       0.705665         3.72725         3.40588 
       0.711789         3.66789          3.3411 
       0.717957         3.59624         3.27757 
        0.72409          3.5347         3.21607 
       0.730186         3.47313         3.15654 
       0.736317         3.43575          3.0982 
       0.742472         3.37399         3.04113 
       0.748622         3.30762         2.98558 
        0.75476         3.24054         2.93154 
       0.760888         3.19003         2.87893 
       0.767043         3.15383         2.82742 
       0.773185         3.08657          2.7773 
       0.779291         3.04579         2.72868 
       0.785407         2.99378         2.68117 
       0.791564         2.94873          2.6345 
       0.797719         2.90523         2.58897 
       0.803834         2.86506         2.54482 
       0.809972         2.81968         2.50154 
       0.816124         2.76688         2.45919 
       0.822261         2.71738         2.41794 
       0.828378         2.68328         2.37777 
       0.834502         2.65318         2.33849 
       0.840667         2.59554         2.29985 
       0.846816         2.55666         2.26219 
       0.852925         2.53236         2.22563 
       0.859047         2.49378          2.1898 
       0.865192         2.45589         2.15465 
       0.871341         2.42256         2.12026 
       0.877463         2.39241         2.08678 
       0.883569          2.3481         2.05411 
       0.889708         2.31318         2.02198 
       0.895864         2.28285         1.99046 
       0.902008         2.24585         1.95969 
       0.908149         2.21899         1.92959 
       0.914301         2.17639         1.90008 
       0.920448         2.15059         1.87122 
       0.926574         2.11897         1.84306 
       0.932687         2.09185         1.81555 
       0.938823         2.07133          1.7885 
       0.944975         2.04089         1.76195 
       0.951105           2.016         1.73604 
       0.957225          1.9976         1.71069 
       0.963368         1.96715         1.68577 
       0.969511         1.93687         1.66135 
       0.975621         1.90694         1.63754 
       0.981748         1.89022         1.61415 
       0.987916         1.86308         1.59107 
        0.99406         1.83383         1.56853 
        1.00019         1.81729         1.54647 
        1.00632         1.78957         1.52486 
        1.01246         1.76814         1.50364 
        1.01859         1.74868         1.48286 
        1.02471         1.72365          1.4625 
        1.03085         1.70699         1.44245 
        1.03698         1.68175         1.42282 
        1.04314         1.66448         1.40348 
        1.04929         1.64135         1.38454 
        1.05541         1.62409         1.36604 
        1.06154         1.60286         1.34782 
        1.06769         1.58468         1.32991 
        1.07382          1.5655         1.31239 
        1.07993          1.5418         1.29523 
        1.08607         1.53283          1.2783 
        1.09222         1.51031         1.26166 
        1.09836          1.4991         1.24534 
        1.10449         1.48076         1.22933 
        1.11063         1.45859         1.21358 
        1.11677         1.44093         1.19812 
         1.1229         1.42609         1.18296 
        1.12903         1.40806         1.16804 
        1.13518         1.39654         1.15338 
        1.14131         1.37674         1.13897 
        1.14745         1.35374         1.12482 
        1.15359         1.34631         1.11091 
        1.15973         1.32543         1.09723 
        1.16584         1.32052         1.08384 
        1.17197         1.30312         1.07066 
        1.17811         1.29034         1.05766 
        1.18424         1.27982         1.04491 
        1.19038         1.26169         1.03234 
        1.19652         1.24651         1.01998 
        1.20267         1.23817         1.00782 
        1.20881         1.22003        0.995867 
        1.21495         1.21163        0.984126 
        1.22108         1.19855        0.972577 
         1.2272         1.18905        0.961242 
        1.23334         1.17319        0.950063 
        1.23949         1.16041        0.939036 
        1.24562         1.15076        0.928215 
        1.25174         1.13857        0.917583 
        1.25789         1.12794        0.907086 
        1.26402         1.11243        0.896772 
        1.27014         1.10191        0.886646 
        1.27628         1.09639        0.876646 
        1.28244          1.0795        0.866782 
        1.28858         1.07065        0.857083 
        1.29471         1.06124        0.847556 
        1.30084         1.04894        0.838182 
        1.30697         1.03955        0.828937 
        1.31312         1.02476        0.819819 
        1.31925         1.01916        0.810867 
        1.32537         1.00995        0.802057 
        1.33151         1.00146        0.793348 
        1.33765         0.99036        0.784773 
        1.34378        0.978224        0.776343 
        1.34992        0.973186        0.768031 
        1.35606        0.960866        0.759824 
         1.3622        0.953909        0.751751 
        1.36833         0.94399        0.743816 
        1.37445        0.932566           0.736 
        1.38059        0.924998        0.728272 
        1.38675         0.92284        0.720638 
        1.39288        0.909731        0.713144 
        1.39901        0.901731         0.70576 
        1.40515        0.894189        0.698465 
         1.4113        0.884828        0.691277 
        1.41742        0.877019        0.684217 
        1.42355        0.873765        0.677243 
         1.4297        0.861304        0.670346 
        1.43585        0.854616        0.663548 
        1.44198        0.850867        0.656871 
        1.44809        0.838998        0.650298 
        1.45423        0.832578        0.643792 
        1.46036        0.825613        0.637386 
        1.46649        0.818445        0.631066 
        1.47263        0.810639        0.624826 
        1.47877          0.8028        0.618674 
        1.48491        0.796269        0.612595 
        1.49104        0.788635        0.606611 
        1.49718         0.78417        0.600703 
        1.50333        0.776297        0.594864 
        1.50947        0.770953        0.589115 
         1.5156         0.76329        0.583451 
        1.52172        0.757115        0.577861 
        1.52787        0.749981        0.572334 
          1.534        0.745313        0.566886 
        1.54013        0.736699        0.561515 
        1.54627        0.731064        0.556204 
        1.55241        0.724659        0.550961 
        1.55855        0.718668        0.545793 
        1.56467        0.715291        0.540707 
         1.5708        0.706905        0.535671 
        1.57695        0.703331        0.530692 
        1.58308        0.697114        0.525788 
        1.58922        0.691265        0.520942 
        1.59535        0.685732         0.51616 
         1.6015        0.680408        0.511432 
        1.60764        0.675707        0.506765 
        1.61376        0.668306        0.502169 
        1.61989        0.664676        0.497627 
        1.62604        0.658793        0.493132 
        1.63218        0.655185        0.488694 
        1.63831        0.648816        0.484322 
        1.64444        0.643506        0.480002 
        1.65059        0.639203        0.475724 
        1.65673        0.633569        0.471503 
        1.66285        0.628844        0.467345 
        1.66898        0.625673        0.463236 
        1.67512         0.61863        0.459169 
        1.68127        0.614076        0.455146 
         1.6874        0.611457        0.451181 
        1.69353        0.605311        0.447266 
        1.69967        0.600977        0.443388 
        1.70581        0.596797        0.439558 
        1.71193        0.592284        0.435788 
        1.71806        0.587933        0.432054 
        1.72421        0.583491        0.428357 
        1.73035        0.578395        0.424707 
        1.73649        0.575686          0.4211 
        1.74262        0.571268        0.417539 
        1.74876        0.566222        0.414017 
        1.75489        0.561974        0.410542 
        1.76101        0.557642        0.407109 
        1.76715        0.553926         0.40371 
        1.77329        0.550175        0.400346 
        1.77943        0.545712         0.39702 
        1.78557         0.54213        0.393736 
        1.79171        0.538803        0.390488 
        1.79785        0.534604        0.387277 
        1.80399        0.530792        0.384103 
        1.81012        0.527544        0.380969 
        1.81625         0.52337        0.377871 
        1.82239        0.520581        0.374803 
        1.82853        0.514639         0.37177 
        1.83466        0.512392        0.368774 
        1.84078         0.50808        0.365815 
        1.84692        0.505674        0.362883 
        1.85306        0.502196         0.35998 
         1.8592        0.498969        0.357113 
        1.86533        0.495658        0.354279 
        1.87147        0.491968        0.351473 
        1.87761        0.489071        0.348695 
        1.88375        0.484044        0.345951 
        1.88988        0.482116         0.34324 
        1.89601        0.478211        0.340556 
        1.90215        0.475664        0.337899 
        1.90829        0.471784        0.335271 
        1.91442        0.468843        0.332672 
        1.92056        0.465919        0.330102 
         1.9267         0.46231        0.327557 
        1.93284        0.459797        0.325037 
        1.93897        0.456814        0.322549 
        1.94509        0.453975        0.320092 
        1.95123        0.450261        0.317654 
        1.95737        0.448061        0.315241 
        1.96349        0.444532        0.312858 
        1.96964        0.441892        0.310494 
        1.97578        0.438781        0.308153 
        1.98192        0.437168         0.30584 
        1.98805         0.43367        0.303552 
        1.99419        0.430823        0.301286 
        2.00033        0.428768        0.299043 
        2.00647        0.425592        0.296824 
         2.0126        0.422581         0.29463 
        2.01874        0.420384        0.292456 
        2.02488        0.418104        0.290302 
        2.03101        0.414528        0.288173 
        2.03714        0.411721        0.286068 
        2.04328        0.410093        0.283981 
        2.04941        0.407362        0.281917 
        2.05554        0.404589        0.279876 
        2.06167        0.402457        0.277851 
        2.06781        0.398733        0.275846 
        2.07396        0.396353        0.273859 
        2.08009        0.394321        0.271894 
        2.08622        0.392094        0.269951 
        2.09237        0.390782        0.268023 
        2.09851        0.388193        0.266113 
        2.10464        0.385682        0.264226 
        2.11077        0.383047        0.262359 
        2.11691        0.380561        0.260505 
        2.12305        0.378356         0.25867 
        2.12918        0.376199        0.256857 
        2.13531        0.373715        0.255061 
        2.14145        0.371885        0.253278 
         2.1476        0.369506         0.25151 
        2.15372        0.368125        0.249768 
        2.15985        0.365022        0.248041 
        2.16599        0.362523        0.246325 
        2.17213        0.361042        0.244627 
        2.17827        0.359405        0.242946 
         2.1844        0.357458        0.241282 
        2.19054        0.355139        0.239633 
        2.19666        0.352436        0.238002 
         2.2028        0.351081        0.236384 
        2.20893        0.349056        0.234781 
        2.21508         0.34666        0.233191 
        2.22122        0.344181        0.231616 
        2.22736        0.342659        0.230058 
        2.23349        0.341244        0.228515 
        2.23962        0.339372        0.226985 
        2.24577        0.336476        0.225468 
         2.2519        0.335531        0.223967 
        2.25802        0.333072        0.222482 
        2.26417        0.331139        0.221006 
        2.27031        0.329205        0.219543 
        2.27644        0.327972        0.218097 
        2.28257        0.325826        0.216664 
        2.28872        0.324067        0.215241 
        2.29486        0.322087        0.213832 
        2.30099        0.320454        0.212438 
        2.30712        0.319129        0.211055 
        2.31326         0.31679        0.209683 
         2.3194        0.316467        0.208324 
        2.32553        0.314486        0.206979 
        2.33166        0.312654        0.205647 
         2.3378        0.311034        0.204324 
        2.34394         0.30821        0.203013 
        2.35007        0.307063        0.201715 
        2.35619        0.305444         0.20043 
        2.36233        0.303198        0.199153 
        2.36848        0.302347        0.197884 
        2.37462        0.300299         0.19663 
        2.38075        0.299546        0.195387 
        2.38689        0.297348        0.194154 
        2.39303        0.296492        0.192932 
        2.39916        0.294024        0.191722 
        2.40529        0.292752        0.190522 
        2.41143        0.291495        0.189332 
        2.41757        0.289868        0.188152 
         2.4237        0.288435        0.186983 
        2.42983        0.286992        0.185825 
        2.43598        0.285916        0.184673 
        2.44211        0.284319        0.183533 
        2.44823        0.283183        0.182406 
        2.45437        0.280741        0.181284 
        2.46052        0.280209        0.180172 
        2.46665        0.278338         0.17907 
        2.47279        0.276865        0.177978 
        2.47892        0.275454        0.176895 
        2.48507         0.27424         0.17582 
         2.4912        0.272986        0.174755 
