# k  (h/Mpc)    P(k)  (Mpc/h)^3    P_linear(k)  (Mpc/h)^3
     0.00783031         2334.16          2371.4 
       0.013688         2869.68         2880.19 
       0.019231         2869.23         2876.64 
      0.0249154         2604.61         2630.93 
      0.0312784         2255.62         2264.41 
      0.0375637         1933.56         1932.16 
      0.0433917          1686.4         1695.38 
      0.0492413         1524.11         1526.64 
      0.0555754         1384.08         1397.92 
      0.0619321         1297.29         1293.32 
       0.067871         1185.83         1195.23 
      0.0738098         1078.85         1087.64 
      0.0800417         956.848          967.96 
      0.0862327         848.863         853.447 
      0.0921407         758.572         758.871 
      0.0982031          679.94           682.7 
       0.104506         630.821         625.756 
       0.110769         589.571         586.152 
       0.116806         555.501         556.425 
       0.122832         529.966         528.055 
       0.129052         493.339         495.526 
       0.135211         457.845         459.114 
       0.141259         424.319         421.436 
       0.147318          390.81         385.286 
       0.153489         357.123         353.277 
       0.159709         332.887         327.581 
       0.165845         316.875         308.451 
       0.171974         298.992         293.875 
       0.178125         286.989         281.529 
       0.184229         275.642         269.482 
        0.19034         258.582         256.381 
       0.196428           247.8         242.089 
       0.202534         235.742         227.167 
       0.208729         220.164         212.516 
       0.214876         206.023          199.45 
       0.220989         197.573         188.446 
       0.227147         186.291         179.364 
        0.23329         178.823         171.855 
       0.239377         173.294         165.294 
       0.245482         164.238         158.973 
       0.251667         160.095         152.414 
       0.257832         153.476           145.6 
       0.263955         146.667         138.717 
       0.270079         140.251             132 
        0.27624         135.762         125.712 
       0.282372         130.109         120.107 
        0.28843         124.575         115.238 
       0.294538         119.775         110.907 
       0.300721         117.136         106.925 
        0.30691         112.021         103.151 
       0.313033         108.554         99.4761 
       0.319153         103.433         95.8094 
       0.325316          101.42         92.1327 
        0.33145         97.3639         88.5663 
       0.337538         94.7583         85.1943 
       0.343633         91.2587         82.0501 
       0.349808         88.4845         79.1217 
       0.355968         86.0367         76.4379 
       0.362074         83.3165         73.9665 
       0.368217         80.8888         71.6088 
       0.374374         78.4308           69.33 
       0.380519         76.4402         67.1081 
       0.386598         74.2915         64.9568 
       0.392688         72.6543          62.863 
        0.39888         70.4556         60.8133 
       0.405048         68.6858         58.8714 
       0.411186         67.0267         57.0488 
       0.417313         64.8873         55.3322 
       0.423458          63.264         53.7048 
       0.429607         61.5866         52.1542 
       0.435692         59.6232          50.679 
       0.441815         58.7269         49.2419 
       0.447964         57.6957         47.8434 
       0.454126         55.3086         46.4848 
       0.460267         54.3982         45.1764 
       0.466387         52.8826          43.923 
        0.47254         52.0293         42.7171 
       0.478662          51.135         41.5691 
       0.484765         49.6168         40.4732 
       0.490885         48.5258         39.4192 
       0.497035         47.8842         38.4001 
       0.503198         46.5936         37.4143 
       0.509342         45.4022         36.4623 
       0.515458         44.5085         35.5445 
       0.521598         43.7808         34.6532 
       0.527764         42.8791         33.7888 
       0.533884          42.145         32.9608 
           0.54         41.2296         32.1626 
       0.546137         40.6046         31.3899 
       0.552299         39.9584         30.6416 
       0.558452         38.7388         29.9204 
       0.564573          38.151         29.2264 
       0.570708         37.5665         28.5527 
       0.576825         36.6853         27.9012 
       0.582926         35.9743         27.2711 
       0.589034         35.0748         26.6595 
       0.595184         34.6356         26.0629 
       0.601379         34.0207         25.4811 
       0.607522         33.3518         24.9225 
       0.613639         33.0666         24.3835 
       0.619772         32.2096         23.8594 
       0.625918         32.0369         23.3499 
       0.632068         31.5137         22.8551 
       0.638161         30.8733         22.3791 
         0.6443         30.2752         21.9132 
       0.650464         29.7622         21.4591 
       0.656582          29.562         21.0212 
       0.662703          28.984         20.5956 
       0.668861         28.4732         20.1795 
       0.675024         27.9884         19.7747 
       0.681124         27.5051         19.3853 
       0.687237         27.0464         19.0057 
       0.693381         26.8205         18.6346 
       0.699536         26.1462         18.2729 
       0.705665         26.0931         17.9224 
       0.711789         25.5023         17.5816 
       0.717957         25.1697         17.2473 
        0.72409         24.8054         16.9236 
       0.730186         24.4495         16.6104 
       0.736317         24.2047         16.3034 
       0.742472         23.7799         16.0031 
       0.748622         23.5497         15.7107 
        0.75476         23.1373         15.4264 
       0.760888         22.8079         15.1496 
       0.767043         22.5451         14.8785 
       0.773185          22.149         14.6147 
       0.779291         22.0336         14.3589 
       0.785407         21.7649         14.1089 
       0.791564         21.3753         13.8633 
       0.797719          20.921         13.6237 
       0.803834         20.8908         13.3914 
       0.809972         20.6962         13.1636 
       0.816124         20.2191         12.9408 
       0.822261         20.0454         12.7237 
       0.828378         19.8411         12.5123 
       0.834502         19.6455         12.3056 
       0.840667         19.3784         12.1023 
       0.846816         19.0423         11.9041 
       0.852925          18.868         11.7117 
       0.859047         18.6584         11.5232 
       0.865192         18.4809         11.3382 
       0.871341         18.3391         11.1572 
       0.877463         18.0043         10.9811 
       0.883569         17.7876         10.8092 
       0.889708         17.5351         10.6401 
       0.895864         17.4052         10.4742 
       0.902008         17.2713         10.3123 
       0.908149         17.0805         10.1539 
       0.914301         16.9688         9.99861 
       0.920448         16.6397         9.84673 
       0.926574         16.5026         9.69857 
       0.932687          16.328         9.55379 
       0.938823          16.114         9.41148 
       0.944975         15.9409         9.27175 
       0.951105         15.8062         9.13538 
       0.957225         15.6582         9.00201 
       0.963368         15.5176         8.87087 
       0.969511         15.3769         8.74235 
       0.975621         15.2338         8.61709 
       0.981748         15.0335         8.49398 
       0.987916         14.9408         8.37252 
        0.99406         14.7371         8.25391 
        1.00019         14.5348         8.13785 
        1.00632          14.499         8.02415 
        1.01246         14.3519         7.91246 
        1.01859         14.1306          7.8031 
        1.02471         14.0762         7.69595 
        1.03085         13.9373         7.59046 
        1.03698         13.7226         7.48718 
        1.04314         13.6506          7.3854 
        1.04929         13.4794         7.28575 
        1.05541         13.3366         7.18836 
        1.06154         13.2527         7.09251 
        1.06769         13.1847         6.99828 
        1.07382         13.0053         6.90608 
        1.07993         12.9197         6.81576 
        1.08607         12.7856         6.72669 
        1.09222         12.6947         6.63913 
        1.09836         12.5409         6.55325 
        1.10449         12.4547         6.46899 
        1.11063         12.3249         6.38613 
        1.11677         12.2719         6.30476 
         1.1229          12.192         6.22496 
        1.12903         12.0361         6.14648 
        1.13518         11.8949          6.0693 
        1.14131         11.8379          5.9935 
        1.14745          11.737         5.91903 
        1.15359         11.6588         5.84583 
        1.15973          11.552         5.77385 
        1.16584          11.388          5.7034 
        1.17197         11.3405         5.63403 
        1.17811         11.2695         5.56562 
        1.18424         11.1682         5.49854 
        1.19038         11.1207         5.43238 
        1.19652         11.0006         5.36733 
        1.20267         10.8948         5.30336 
        1.20881         10.8645         5.24045 
        1.21495          10.777         5.17867 
        1.22108         10.6493          5.1179 
         1.2272         10.5754         5.05825 
        1.23334         10.4801         4.99942 
        1.23949          10.389          4.9414 
        1.24562         10.3507         4.88446 
        1.25174         10.2766         4.82851 
        1.25789         10.1959         4.77327 
        1.26402         10.1506           4.719 
        1.27014         10.0577         4.66571 
        1.27628         9.93078         4.61309 
        1.28244         9.86599         4.56118 
        1.28858         9.85917         4.51015 
        1.29471         9.74832         4.46001 
        1.30084         9.65462         4.41069 
        1.30697         9.63606         4.36204 
        1.31312         9.50417         4.31405 
        1.31925         9.44143         4.26695 
        1.32537         9.39766         4.22059 
        1.33151         9.34433         4.17476 
        1.33765         9.26383         4.12964 
        1.34378         9.19627         4.08528 
        1.34992         9.12372         4.04154 
        1.35606         9.07894         3.99835 
         1.3622         9.02428         3.95587 
        1.36833         8.94222         3.91411 
        1.37445         8.89739         3.87298 
        1.38059         8.85724         3.83232 
        1.38675         8.77173         3.79214 
        1.39288         8.73715         3.75271 
        1.39901         8.64296         3.71385 
        1.40515         8.60716         3.67547 
         1.4113         8.55217         3.63764 
        1.41742         8.49349         3.60049 
        1.42355          8.4238         3.56379 
         1.4297          8.3818          3.5275 
        1.43585         8.34729         3.49172 
        1.44198         8.30196         3.45659 
        1.44809         8.23464           3.422 
        1.45423         8.17273         3.38776 
        1.46036          8.1211         3.35405 
        1.46649         8.08172         3.32079 
        1.47263         8.00701         3.28796 
        1.47877         7.96461         3.25559 
        1.48491         7.92425          3.2236 
        1.49104          7.8731         3.19211 
        1.49718         7.83296         3.16102 
        1.50333         7.78807         3.13029 
        1.50947         7.72955         3.10004 
         1.5156         7.68764         3.07023 
        1.52172          7.6509         3.04082 
        1.52787         7.59605         3.01174 
          1.534         7.54333         2.98307 
        1.54013         7.50923          2.9548 
        1.54627         7.44643         2.92686 
        1.55241          7.4159         2.89927 
        1.55855         7.38421         2.87207 
        1.56467         7.32596         2.84531 
         1.5708         7.30757         2.81881 
        1.57695         7.23976         2.79261 
        1.58308         7.19365          2.7668 
        1.58922         7.17408          2.7413 
        1.59535         7.14207         2.71614 
         1.6015         7.08056         2.69126 
        1.60764         7.03139          2.6667 
        1.61376         7.01492         2.64252 
        1.61989         6.96984         2.61861 
        1.62604         6.92773         2.59496 
        1.63218         6.90706         2.57161 
        1.63831         6.86647          2.5486 
        1.64444         6.82797         2.52586 
        1.65059         6.75938         2.50335 
        1.65673         6.76053         2.48114 
        1.66285         6.68886         2.45926 
        1.66898         6.66414         2.43764 
        1.67512         6.63607         2.41624 
        1.68127         6.59415         2.39507 
         1.6874         6.57282         2.37421 
        1.69353         6.52081          2.3536 
        1.69967         6.49322          2.3332 
        1.70581         6.46355         2.31304 
        1.71193         6.42055          2.2932 
        1.71806         6.40346         2.27355 
        1.72421         6.35562          2.2541 
        1.73035         6.33961         2.23489 
        1.73649         6.30397         2.21591 
        1.74262          6.2615         2.19717 
        1.74876         6.24136         2.17864 
        1.75489         6.21292         2.16035 
        1.76101         6.16381         2.14229 
        1.76715         6.14845          2.1244 
        1.77329         6.10863          2.1067 
        1.77943           6.068          2.0892 
        1.78557          6.0606         2.07191 
        1.79171         6.02267         2.05483 
        1.79785         5.98614         2.03793 
        1.80399         5.95177         2.02122 
        1.81012         5.93199         2.00473 
        1.81625          5.8999         1.98843 
        1.82239         5.87775         1.97229 
        1.82853         5.84164         1.95633 
        1.83466         5.81697         1.94056 
        1.84078          5.7896         1.92499 
        1.84692         5.77889         1.90956 
        1.85306         5.73219         1.89429 
         1.8592         5.69953          1.8792 
        1.86533         5.67909         1.86429 
        1.87147         5.65652         1.84952 
        1.87761         5.62854          1.8349 
        1.88375         5.59618         1.82046 
        1.88988         5.57872          1.8062 
        1.89601         5.55104         1.79207 
        1.90215         5.52692         1.77809 
        1.90829         5.49581         1.76426 
        1.91442         5.47235         1.75058 
        1.92056          5.4523         1.73706 
         1.9267         5.41788         1.72367 
        1.93284         5.39656         1.71041 
        1.93897         5.36804         1.69731 
        1.94509         5.35095         1.68439 
        1.95123         5.32208         1.67156 
        1.95737         5.29078         1.65886 
        1.96349         5.27867         1.64632 
        1.96964         5.25294         1.63388 
        1.97578         5.22159         1.62156 
        1.98192         5.20814         1.60939 
        1.98805         5.18683         1.59735 
        1.99419         5.15942         1.58543 
        2.00033         5.14886         1.57362 
        2.00647         5.11702         1.56194 
         2.0126         5.10043          1.5504 
        2.01874         5.06995         1.53896 
        2.02488         5.05662         1.52762 
        2.03101         5.02262         1.51642 
        2.03714         4.99969         1.50534 
        2.04328         4.98074         1.49437 
        2.04941         4.95433          1.4835 
        2.05554         4.93893         1.47276 
        2.06167          4.9189         1.46211 
        2.06781         4.89974         1.45156 
        2.07396         4.88769          1.4411 
        2.08009         4.86083         1.43076 
        2.08622         4.83414         1.42053 
        2.09237         4.81956         1.41039 
        2.09851         4.80518         1.40034 
        2.10464         4.78079         1.39041 
        2.11077         4.75098         1.38058 
        2.11691         4.73496         1.37083 
        2.12305         4.72139         1.36117 
        2.12918         4.70904         1.35163 
        2.13531         4.68492         1.34218 
        2.14145         4.66651          1.3328 
         2.1476         4.64071         1.32349 
        2.15372         4.62373         1.31433 
        2.15985          4.6215         1.30524 
        2.16599         4.58399         1.29621 
        2.17213         4.57303         1.28728 
        2.17827         4.55984         1.27843 
         2.1844         4.53617         1.26967 
        2.19054         4.51298         1.26099 
        2.19666         4.49631         1.25241 
         2.2028         4.48067          1.2439 
        2.20893         4.46669         1.23546 
        2.21508          4.4433          1.2271 
        2.22122         4.42504         1.21881 
        2.22736         4.41031         1.21061 
        2.23349         4.40315         1.20249 
        2.23962         4.38182         1.19444 
        2.24577         4.35989         1.18645 
         2.2519         4.35231         1.17856 
        2.25802         4.32667         1.17074 
        2.26417          4.3131         1.16298 
        2.27031         4.29353         1.15528 
        2.27644         4.27466         1.14767 
        2.28257         4.25946         1.14013 
        2.28872         4.25156         1.13264 
        2.29486         4.23233         1.12522 
        2.30099         4.21281         1.11789 
        2.30712         4.19811         1.11061 
        2.31326         4.17495         1.10339 
         2.3194         4.16696         1.09624 
        2.32553         4.15392         1.08916 
        2.33166         4.14172         1.08215 
         2.3378         4.12046         1.07519 
        2.34394         4.10701         1.06829 
        2.35007         4.08659         1.06146 
        2.35619         4.07884          1.0547 
        2.36233         4.06331         1.04798 
        2.36848         4.04286         1.04131 
        2.37462         4.03795          1.0347 
        2.38075         4.01981         1.02816 
        2.38689         4.00786         1.02168 
        2.39303         3.98825         1.01525 
        2.39916          3.9745         1.00888 
        2.40529         3.96083         1.00257 
        2.41143         3.94724        0.996302 
        2.41757         3.94121        0.990089 
         2.4237          3.9252        0.983941 
        2.42983         3.89752        0.977845 
        2.43598         3.89245        0.971786 
        2.44211         3.87431        0.965787 
        2.44823         3.86468        0.959853 
        2.45437         3.84814        0.953953 
        2.46052         3.83789        0.948097 
        2.46665         3.82532        0.942301 
        2.47279         3.80879        0.936556 
        2.47892         3.79599        0.930855 
        2.48507         3.78597        0.925196 
         2.4912         3.76742        0.919595 
