# k  (h/Mpc)    P(k)  (Mpc/h)^3    P_linear(k)  (Mpc/h)^3
     0.00783031         8541.83          8677.7 
       0.013688         10570.4           10533 
       0.019231           10519         10516.7 
      0.0249154         9465.16         9616.66 
      0.0312784         8215.96         8275.85 
      0.0375637         7066.69         7060.96 
      0.0433917          6121.2         6195.31 
      0.0492413         5551.87         5578.49 
      0.0555754         4996.96         5107.94 
      0.0619321         4738.23         4725.63 
       0.067871         4286.14         4367.13 
      0.0738098         3902.05         3973.95 
      0.0800417         3448.87         3536.64 
      0.0862327         3077.59         3118.21 
      0.0921407         2774.04         2772.63 
      0.0982031         2482.49         2494.31 
       0.104506         2329.86         2286.25 
       0.110769         2173.59         2141.54 
       0.116806         2046.61         2032.92 
       0.122832         1951.68         1929.26 
       0.129052         1804.01         1810.41 
       0.135211         1683.35         1677.38 
       0.141259         1577.81         1539.71 
       0.147318         1463.47         1407.63 
       0.153489         1336.37         1290.69 
       0.159709         1258.95         1196.81 
       0.165845          1207.5         1126.91 
       0.171974         1141.85         1073.66 
       0.178125         1092.71         1028.55 
       0.184229         1049.29         984.539 
        0.19034         978.937         936.674 
       0.196428         951.646         884.457 
       0.202534         911.565         829.939 
       0.208729         858.556         776.411 
       0.214876         810.336         728.676 
       0.220989         782.053         688.475 
       0.227147         742.849         655.291 
        0.23329         714.219         627.858 
       0.239377         698.693         603.887 
       0.245482         653.199         580.794 
       0.251667         645.416          556.83 
       0.257832         620.657         531.937 
       0.263955         597.296         506.789 
       0.270079         573.736         482.249 
        0.27624          564.28         459.278 
       0.282372         540.972           438.8 
        0.28843         526.074         421.011 
       0.294538         501.254         405.189 
       0.300721         497.641         390.639 
        0.30691         474.701          376.85 
       0.313033         464.528         363.426 
       0.319153         448.768          350.03 
       0.325316         435.909         336.597 
        0.33145         422.211         323.568 
       0.337538         416.074         311.248 
       0.343633          402.23         299.761 
       0.349808         388.839         289.063 
       0.355968         384.321         279.257 
       0.362074         375.908         270.228 
       0.368217         365.594         261.615 
       0.374374         351.483         253.289 
       0.380519         347.575         245.172 
       0.386598         338.759         237.313 
       0.392688          335.36         229.663 
        0.39888          326.05         222.174 
       0.405048         318.598          215.08 
       0.411186         312.165         208.421 
       0.417313         306.228          202.15 
       0.423458         300.274         196.204 
       0.429607         293.916         190.539 
       0.435692         285.933          185.15 
       0.441815         283.668         179.899 
       0.447964         278.181          174.79 
       0.454126         268.048         169.827 
       0.460267         264.746         165.047 
       0.466387         261.628         160.468 
        0.47254          255.75         156.062 
       0.478662         254.602         151.868 
       0.484765         246.587         147.864 
       0.490885         243.404         144.014 
       0.497035         239.762          140.29 
       0.503198         234.166         136.689 
       0.509342         231.753         133.211 
       0.515458         228.642         129.857 
       0.521598         224.589         126.601 
       0.527764         221.143         123.443 
       0.533884         218.359         120.418 
           0.54         215.034         117.502 
       0.546137         213.735         114.679 
       0.552299         209.462         111.945 
       0.558452         207.014         109.311 
       0.564573         203.665         106.775 
       0.570708         199.862         104.314 
       0.576825         197.303         101.934 
       0.582926         194.487         99.6316 
       0.589034         192.179         97.3971 
       0.595184         190.125         95.2175 
       0.601379         188.049         93.0922 
       0.607522         184.215         91.0513 
       0.613639          183.25         89.0819 
       0.619772         179.271         87.1673 
       0.625918         177.692          85.306 
       0.632068          175.53         83.4983 
       0.638161         174.344         81.7591 
         0.6443         171.684         80.0573 
       0.650464          169.99         78.3981 
       0.656582         168.161         76.7983 
       0.662703         166.196         75.2433 
       0.668861         163.607         73.7231 
       0.675024         161.715         72.2444 
       0.681124          160.87         70.8217 
       0.687237         158.159          69.435 
       0.693381         155.953         68.0793 
       0.699536          154.88         66.7578 
       0.705665         154.591         65.4774 
       0.711789         151.368          64.232 
       0.717957         150.878         63.0108 
        0.72409         148.755         61.8284 
       0.730186          146.56         60.6838 
       0.736317         145.628         59.5623 
       0.742472         144.688         58.4652 
       0.748622          143.33         57.3971 
        0.75476         142.052         56.3583 
       0.760888         140.085          55.347 
       0.767043         139.399         54.3567 
       0.773185         137.922          53.393 
       0.779291         135.812         52.4583 
       0.785407         135.124         51.5449 
       0.791564         133.919         50.6477 
       0.797719         131.918         49.7725 
       0.803834         131.334         48.9236 
       0.809972         129.823         48.0917 
       0.816124         129.545         47.2775 
       0.822261         128.017         46.4845 
       0.828378         126.817         45.7122 
       0.834502           126.4          44.957 
       0.840667         124.583         44.2141 
       0.846816         123.367         43.4902 
       0.852925         122.626         42.7873 
       0.859047         121.155         42.0985 
       0.865192         120.452         41.4228 
       0.871341         119.325         40.7616 
       0.877463         118.212         40.1179 
       0.883569         117.471         39.4899 
       0.889708         116.572         38.8722 
       0.895864         115.473         38.2663 
       0.902008         114.663         37.6746 
       0.908149         114.055          37.096 
       0.914301         112.833         36.5286 
       0.920448         112.047         35.9738 
       0.926574          111.32         35.4325 
       0.932687             111         34.9035 
       0.938823         109.308         34.3836 
       0.944975         108.345         33.8731 
       0.951105         107.809         33.3749 
       0.957225         106.566         32.8877 
       0.963368         105.888         32.4086 
       0.969511         105.596          31.939 
       0.975621         105.069         31.4814 
       0.981748         104.213         31.0317 
       0.987916         103.135         30.5879 
        0.99406         102.491         30.1546 
        1.00019         101.817         29.7306 
        1.00632         101.141         29.3152 
        1.01246         100.411         28.9071 
        1.01859         99.1586         28.5076 
        1.02471         99.1473         28.1161 
        1.03085         98.1239         27.7307 
        1.03698         97.5652         27.3534 
        1.04314         96.6302         26.9816 
        1.04929         96.0985         26.6175 
        1.05541         95.3869         26.2617 
        1.06154         94.9512         25.9116 
        1.06769         94.5758         25.5673 
        1.07382         94.0168         25.2305 
        1.07993         93.2912         24.9005 
        1.08607           92.55         24.5751 
        1.09222         92.1441         24.2552 
        1.09836         91.3999         23.9414 
        1.10449         90.8689         23.6336 
        1.11063         90.2498         23.3309 
        1.11677         89.8279         23.0336 
         1.1229         88.8675         22.7421 
        1.12903         88.1289         22.4554 
        1.13518         88.3565         22.1734 
        1.14131         87.6215         21.8964 
        1.14745         86.7546         21.6244 
        1.15359         86.3696          21.357 
        1.15973         85.9869          21.094 
        1.16584         85.2823         20.8366 
        1.17197         84.8375         20.5832 
        1.17811         84.3065         20.3332 
        1.18424         83.7244         20.0882 
        1.19038         83.2192         19.8465 
        1.19652         82.8429         19.6088 
        1.20267         82.1605         19.3751 
        1.20881         81.7535         19.1453 
        1.21495         81.1622         18.9196 
        1.22108         80.7711         18.6976 
         1.2272          80.061         18.4797 
        1.23334         79.7912         18.2647 
        1.23949         79.2549         18.0527 
        1.24562         78.9201         17.8447 
        1.25174         78.4155         17.6403 
        1.25789         78.0618         17.4385 
        1.26402         77.6497         17.2402 
        1.27014         76.8968         17.0455 
        1.27628         76.7161         16.8533 
        1.28244         76.0732         16.6637 
        1.28858         75.8375         16.4772 
        1.29471         75.4086         16.2941 
        1.30084         74.9185         16.1139 
        1.30697         74.4895         15.9361 
        1.31312          74.093         15.7608 
        1.31925         73.7577         15.5887 
        1.32537         73.4227         15.4194 
        1.33151         72.6985         15.2519 
        1.33765         72.3637         15.0871 
        1.34378         71.9315          14.925 
        1.34992         71.7073         14.7652 
        1.35606         71.2928         14.6074 
         1.3622         70.6667         14.4522 
        1.36833         70.5125         14.2997 
        1.37445         70.0819         14.1494 
        1.38059           69.57         14.0009 
        1.38675         69.2067         13.8541 
        1.39288         68.7822           13.71 
        1.39901          68.676         13.5681 
        1.40515         68.2388         13.4278 
         1.4113         67.8272         13.2896 
        1.41742         67.6846         13.1539 
        1.42355         67.0512         13.0198 
         1.4297         66.8147         12.8872 
        1.43585         66.2997         12.7565 
        1.44198         66.0662         12.6282 
        1.44809           65.75         12.5018 
        1.45423         65.4056         12.3767 
        1.46036         65.1811         12.2536 
        1.46649         64.7701         12.1321 
        1.47263         64.3389         12.0121 
        1.47877         64.1634         11.8939 
        1.48491         63.8695          11.777 
        1.49104         63.4051         11.6619 
        1.49718         62.9669         11.5484 
        1.50333         62.7399         11.4361 
        1.50947         62.4163         11.3256 
         1.5156         62.1068         11.2167 
        1.52172          61.859         11.1092 
        1.52787         61.6789          11.003 
          1.534         61.2524         10.8982 
        1.54013         60.8644          10.795 
        1.54627         60.6601         10.6929 
        1.55241          60.224         10.5921 
        1.55855         59.9157         10.4927 
        1.56467         59.5103         10.3949 
         1.5708         59.4811         10.2981 
        1.57695         59.1998         10.2024 
        1.58308         58.7365         10.1081 
        1.58922         58.6786          10.015 
        1.59535         58.4322         9.92304 
         1.6015         57.8528         9.83214 
        1.60764         57.7261         9.74242 
        1.61376         57.3871         9.65407 
        1.61989         57.0349         9.56675 
        1.62604         56.9081         9.48032 
        1.63218         56.7072         9.39502 
        1.63831         56.3489         9.31096 
        1.64444         56.0389          9.2279 
        1.65059         55.6626         9.14566 
        1.65673         55.5205         9.06451 
        1.66285           55.17         8.98458 
        1.66898         54.9405         8.90559 
        1.67512         54.5872         8.82739 
        1.68127          54.292         8.75006 
         1.6874         54.1517         8.67384 
        1.69353         53.8536         8.59857 
        1.69967         53.5751         8.52402 
        1.70581         53.4772         8.45038 
        1.71193         53.2315          8.3779 
        1.71806         52.7236         8.30612 
        1.72421         52.6457         8.23504 
        1.73035         52.3413         8.16487 
        1.73649         51.9336         8.09554 
        1.74262         51.8902         8.02707 
        1.74876          51.636         7.95935 
        1.75489         51.3338         7.89256 
        1.76101         51.1617         7.82656 
        1.76715         50.8125         7.76122 
        1.77329         50.6228         7.69655 
        1.77943         50.3499         7.63259 
        1.78557         50.2042         7.56946 
        1.79171         49.9042         7.50703 
        1.79785         49.6884         7.44529 
        1.80399         49.4821         7.38427 
        1.81012          49.305         7.32401 
        1.81625         48.8332         7.26445 
        1.82239         48.7347         7.20547 
        1.82853         48.3735         7.14718 
        1.83466         48.2854         7.08958 
        1.84078         47.9114         7.03269 
        1.84692         47.7128         6.97632 
        1.85306         47.5353         6.92051 
         1.8592         47.2208         6.86539 
        1.86533         47.1054         6.81091 
        1.87147         46.8976         6.75696 
        1.87761         46.7209         6.70356 
        1.88375          46.457         6.65081 
        1.88988         46.4082         6.59869 
        1.89601         46.0283         6.54709 
        1.90215         45.8456         6.49601 
        1.90829         45.7349         6.44549 
        1.91442         45.4536         6.39552 
        1.92056         45.1821         6.34611 
         1.9267         44.9238         6.29718 
        1.93284         44.7877         6.24874 
        1.93897         44.5893          6.2009 
        1.94509         44.2977         6.15367 
        1.95123         44.2238         6.10681 
        1.95737         43.9733         6.06041 
        1.96349         43.7296          6.0146 
        1.96964         43.6563         5.96915 
        1.97578         43.3517         5.92414 
        1.98192         43.1957         5.87969 
        1.98805         43.0182         5.83569 
        1.99419         42.7176         5.79214 
        2.00033         42.5666         5.74902 
        2.00647         42.3724         5.70635 
         2.0126          42.155         5.66418 
        2.01874         42.0195         5.62238 
        2.02488         41.8812         5.58096 
        2.03101         41.5951         5.54004 
        2.03714         41.4234         5.49957 
        2.04328         41.1993         5.45945 
        2.04941         40.9874         5.41978 
        2.05554         40.7669         5.38052 
        2.06167         40.7237          5.3416 
        2.06781         40.4874         5.30306 
        2.07396         40.2829         5.26485 
        2.08009         40.1457         5.22708 
        2.08622         39.8785         5.18972 
        2.09237         39.7202         5.15265 
        2.09851         39.5362         5.11595 
        2.10464         39.3808         5.07965 
        2.11077         39.2564         5.04376 
        2.11691         39.0086         5.00813 
        2.12305         38.7987         4.97285 
        2.12918         38.6614         4.93799 
        2.13531          38.446         4.90346 
        2.14145         38.3499         4.86919 
         2.1476         38.1405          4.8352 
        2.15372         37.9148         4.80171 
        2.15985         37.7905          4.7685 
        2.16599         37.7416         4.73552 
        2.17213         37.5837         4.70288 
        2.17827         37.2871         4.67055 
         2.1844         37.1346         4.63856 
        2.19054         36.9509         4.60686 
        2.19666         36.8087         4.57551 
         2.2028         36.6314         4.54441 
        2.20893         36.5334         4.51359 
        2.21508         36.3694         4.48303 
        2.22122         36.1387         4.45273 
        2.22736          36.011         4.42278 
        2.23349         35.8862         4.39312 
        2.23962         35.6244         4.36371 
        2.24577         35.4951         4.33454 
         2.2519         35.3201         4.30569 
        2.25802          35.237         4.27714 
        2.26417         35.0596         4.24877 
        2.27031         34.9699         4.22064 
        2.27644          34.682         4.19284 
        2.28257         34.6003         4.16529 
        2.28872         34.3874         4.13794 
        2.29486         34.3316         4.11084 
        2.30099          34.157         4.08404 
        2.30712         34.0156         4.05747 
        2.31326         33.8995         4.03109 
         2.3194         33.7201         4.00496 
        2.32553         33.5567          3.9791 
        2.33166          33.424         3.95349 
         2.3378         33.2279         3.92806 
        2.34394         33.0386         3.90285 
        2.35007         32.9345          3.8779 
        2.35619         32.8664         3.85319 
        2.36233         32.7503         3.82864 
        2.36848         32.4983         3.80426 
        2.37462         32.4408         3.78014 
        2.38075         32.2744         3.75625 
        2.38689         32.2097         3.73255 
        2.39303         31.9998         3.70906 
        2.39916         31.8117         3.68579 
        2.40529         31.6046         3.66273 
        2.41143         31.5753         3.63984 
        2.41757         31.4816         3.61715 
         2.4237          31.294         3.59469 
        2.42983         31.1691         3.57242 
        2.43598         30.9866         3.55028 
        2.44211         30.8666         3.52837 
        2.44823          30.745         3.50669 
        2.45437         30.6559         3.48513 
        2.46052         30.4446         3.46374 
        2.46665         30.3943         3.44256 
        2.47279         30.2528         3.42157 
        2.47892         30.0705         3.40074 
        2.48507         29.9589         3.38007 
         2.4912         29.8395         3.35961 
