# k  (h/Mpc)    P(k)  (Mpc/h)^3    P_linear(k)  (Mpc/h)^3
     0.00783031         18927.9         19209.6 
       0.013688         23553.2         23307.1 
       0.019231         23307.1         23266.1 
      0.0249154         20767.3         21271.8 
      0.0312784         18051.7         18304.1 
      0.0375637         15582.9         15615.9 
      0.0433917         13395.1         13700.8 
      0.0492413           12193         12336.2 
      0.0555754         10858.4         11295.3 
      0.0619321         10404.7         10449.7 
       0.067871         9310.78         9656.74 
      0.0738098         8490.89         8787.21 
      0.0800417         7481.89         7820.11 
      0.0862327         6721.51         6894.81 
      0.0921407         6125.24         6130.65 
      0.0982031         5490.14         5515.21 
       0.104506         5201.81         5055.12 
       0.110769         4847.27         4735.13 
       0.116806         4584.03         4494.94 
       0.122832         4351.87         4265.73 
       0.129052          4003.4         4002.92 
       0.135211         3753.83         3708.76 
       0.141259         3563.45         3404.37 
       0.147318         3338.24         3112.33 
       0.153489         3054.62         2853.75 
       0.159709         2898.56         2646.17 
       0.165845         2809.13         2491.63 
       0.171974         2669.34         2373.88 
       0.178125         2544.62         2274.14 
       0.184229         2428.33         2176.82 
        0.19034         2301.15         2070.99 
       0.196428         2241.57         1955.53 
       0.202534         2143.84            1835 
       0.208729         2044.81         1716.64 
       0.214876         1967.22          1611.1 
       0.220989         1899.04         1522.21 
       0.227147         1827.06         1448.84 
        0.23329         1758.24         1388.19 
       0.239377         1733.52         1335.19 
       0.245482         1628.93         1284.13 
       0.251667         1619.21         1231.14 
       0.257832         1553.43          1176.1 
       0.263955         1500.23          1120.5 
       0.270079         1449.46         1066.24 
        0.27624         1431.04         1015.45 
       0.282372          1373.1         970.176 
        0.28843         1369.35         930.845 
       0.294538         1302.57         895.863 
       0.300721         1293.51         863.693 
        0.30691         1246.53         833.206 
       0.313033         1220.74         803.524 
       0.319153         1203.68         773.906 
       0.325316         1163.82         744.207 
        0.33145         1138.99         715.398 
       0.337538         1116.62         688.161 
       0.343633         1095.39         662.763 
       0.349808         1059.04         639.109 
       0.355968         1050.99         617.429 
       0.362074         1042.44         597.467 
       0.368217         1008.27         578.422 
       0.374374         973.208         560.014 
       0.380519         975.941         542.067 
       0.386598         946.604          524.69 
       0.392688         942.653         507.776 
        0.39888         916.273          491.22 
       0.405048         906.614         475.534 
       0.411186         893.938         460.812 
       0.417313         875.084         446.946 
       0.423458         859.169           433.8 
       0.429607         850.044         421.276 
       0.435692         832.647         409.359 
       0.441815         824.899         397.751 
       0.447964         808.894         386.455 
       0.454126         803.386          375.48 
       0.460267         782.682         364.912 
       0.466387         772.661         354.788 
        0.47254         771.043         345.046 
       0.478662         760.762         335.774 
       0.484765         739.573         326.922 
       0.490885         735.204         318.408 
       0.497035         719.826         310.176 
       0.503198         715.722         302.213 
       0.509342         708.052         294.523 
       0.515458         704.509          287.11 
       0.521598         687.094         279.911 
       0.527764         675.693         272.928 
       0.533884         672.771          266.24 
           0.54         666.908         259.793 
       0.546137         659.654         253.551 
       0.552299         652.141         247.507 
       0.558452           646.3         241.681 
       0.564573         639.052         236.076 
       0.570708         631.659         230.633 
       0.576825         615.808         225.371 
       0.582926         618.453         220.281 
       0.589034         611.684         215.341 
       0.595184         606.313         210.522 
       0.601379         597.843         205.823 
       0.607522         589.276         201.311 
       0.613639         588.853         196.956 
       0.619772         577.951         192.723 
       0.625918         573.838         188.608 
       0.632068         566.555         184.611 
       0.638161         564.008         180.766 
         0.6443         555.186         177.003 
       0.650464         553.409         173.335 
       0.656582         547.609         169.798 
       0.662703         546.169          166.36 
       0.668861         537.457         162.999 
       0.675024         532.851         159.729 
       0.681124           529.2         156.584 
       0.687237         525.404         153.518 
       0.693381         518.256          150.52 
       0.699536         509.812         147.599 
       0.705665         509.479         144.768 
       0.711789         506.846         142.014 
       0.717957         502.356         139.314 
        0.72409         499.945           136.7 
       0.730186         492.615         134.169 
       0.736317         489.713          131.69 
       0.742472          486.51         129.264 
       0.748622         481.457         126.903 
        0.75476         474.373         124.606 
       0.760888         470.713          122.37 
       0.767043         470.341          120.18 
       0.773185         466.184         118.049 
       0.779291         461.166         115.983 
       0.785407         457.679         113.963 
       0.791564         453.145          111.98 
       0.797719         451.527         110.045 
       0.803834          445.66         108.168 
       0.809972         444.958         106.329 
       0.816124         443.419         104.528 
       0.822261         437.407         102.775 
       0.828378         434.799         101.068 
       0.834502         430.128         99.3978 
       0.840667         427.084         97.7553 
       0.846816         425.228         96.1549 
       0.852925         422.271         94.6007 
       0.859047          420.27         93.0779 
       0.865192         414.858         91.5839 
       0.871341         411.472          90.122 
       0.877463         411.545         88.6988 
       0.883569          407.14         87.3103 
       0.889708         404.794         85.9447 
       0.895864         404.054          84.605 
       0.902008         400.238         83.2969 
       0.908149         394.468         82.0175 
       0.914301         393.012         80.7631 
       0.920448         391.314         79.5363 
       0.926574         385.224         78.3395 
       0.932687          384.51         77.1701 
       0.938823          381.11         76.0205 
       0.944975         381.112         74.8919 
       0.951105         376.964         73.7904 
       0.957225         374.458         72.7131 
       0.963368         370.101         71.6538 
       0.969511         369.233         70.6157 
       0.975621          367.34          69.604 
       0.981748          364.62         68.6096 
       0.987916         362.776         67.6285 
        0.99406         357.622         66.6704 
        1.00019          355.78         65.7329 
        1.00632          354.51         64.8145 
        1.01246         351.598         63.9123 
        1.01859         351.426          63.029 
        1.02471         346.624         62.1635 
        1.03085         345.382         61.3114 
        1.03698         343.499         60.4772 
        1.04314         341.014          59.655 
        1.04929           337.5         58.8501 
        1.05541         338.401         58.0634 
        1.06154          332.81         57.2893 
        1.06769         331.836         56.5281 
        1.07382         329.129         55.7833 
        1.07993         327.712         55.0538 
        1.08607         326.812         54.3343 
        1.09222         322.907         53.6271 
        1.09836         320.934         52.9333 
        1.10449         318.821         52.2528 
        1.11063         314.983         51.5835 
        1.11677         315.883         50.9262 
         1.1229         312.991         50.2817 
        1.12903         311.267         49.6478 
        1.13518         308.101         49.0243 
        1.14131         306.768          48.412 
        1.14745         305.127         47.8106 
        1.15359         303.202         47.2193 
        1.15973         301.374         46.6378 
        1.16584         298.921         46.0688 
        1.17197         298.716         45.5085 
        1.17811         295.245         44.9558 
        1.18424         292.994          44.414 
        1.19038         292.197         43.8796 
        1.19652         290.022         43.3542 
        1.20267         289.242         42.8375 
        1.20881           286.8         42.3294 
        1.21495         284.794         41.8303 
        1.22108         283.064         41.3394 
         1.2272         281.422         40.8576 
        1.23334         280.323         40.3824 
        1.23949          277.25         39.9137 
        1.24562         276.415         39.4538 
        1.25174         275.059         39.0019 
        1.25789         272.494         38.5557 
        1.26402         270.725         38.1173 
        1.27014         269.125         37.6869 
        1.27628         267.117         37.2618 
        1.28244          267.24         36.8426 
        1.28858         264.717         36.4303 
        1.29471         263.591         36.0254 
        1.30084         260.971          35.627 
        1.30697         260.303          35.234 
        1.31312         257.486         34.8464 
        1.31925         256.125         34.4659 
        1.32537         255.678         34.0915 
        1.33151          253.21         33.7213 
        1.33765          251.15         33.3568 
        1.34378         250.652         32.9985 
        1.34992         249.259         32.6452 
        1.35606         248.152         32.2963 
         1.3622         245.675         31.9532 
        1.36833         244.526         31.6159 
        1.37445         242.875         31.2837 
        1.38059         241.178         30.9552 
        1.38675          240.11         30.6307 
        1.39288         238.874         30.3122 
        1.39901         237.355         29.9983 
        1.40515         236.236         29.6883 
         1.4113         234.678         29.3827 
        1.41742         232.834         29.0826 
        1.42355         231.757         28.7862 
         1.4297         230.039          28.493 
        1.43585         228.815         28.2041 
        1.44198         228.295         27.9203 
        1.44809         226.234         27.6409 
        1.45423         225.018         27.3643 
        1.46036         223.755         27.0921 
        1.46649         222.476         26.8234 
        1.47263         221.322         26.5582 
        1.47877         219.581         26.2967 
        1.48491         217.519         26.0383 
        1.49104          217.08          25.784 
        1.49718         215.312         25.5328 
        1.50333         214.763         25.2847 
        1.50947         213.199         25.0403 
         1.5156         211.519         24.7995 
        1.52172         210.769          24.562 
        1.52787         209.024          24.327 
          1.534         208.539         24.0955 
        1.54013         206.678         23.8672 
        1.54627         205.758         23.6414 
        1.55241         204.616         23.4186 
        1.55855         202.649         23.1989 
        1.56467         202.288         22.9827 
         1.5708         201.092         22.7687 
        1.57695         199.964          22.557 
        1.58308         198.546         22.3486 
        1.58922          197.06         22.1426 
        1.59535          195.71         21.9394 
         1.6015         194.847         21.7384 
        1.60764         193.973           21.54 
        1.61376         192.942         21.3447 
        1.61989         191.875         21.1516 
        1.62604         190.409         20.9605 
        1.63218          189.68         20.7719 
        1.63831         188.089         20.5861 
        1.64444         187.257         20.4024 
        1.65059         186.416         20.2206 
        1.65673          185.22         20.0412 
        1.66285         183.704         19.8645 
        1.66898         183.063         19.6898 
        1.67512         182.122         19.5169 
        1.68127         180.412          19.346 
         1.6874         179.872         19.1774 
        1.69353         178.598          19.011 
        1.69967         177.348         18.8462 
        1.70581         176.623         18.6834 
        1.71193         175.186         18.5231 
        1.71806         174.689         18.3644 
        1.72421         173.472         18.2073 
        1.73035         172.805         18.0521 
        1.73649         171.701         17.8988 
        1.74262         170.668         17.7475 
        1.74876         169.345         17.5977 
        1.75489         168.764         17.4501 
        1.76101         167.198         17.3041 
        1.76715         166.895         17.1597 
        1.77329         165.667         17.0167 
        1.77943         165.012         16.8753 
        1.78557         163.844         16.7357 
        1.79171         163.151         16.5977 
        1.79785         161.843         16.4612 
        1.80399         161.129         16.3262 
        1.81012         160.249          16.193 
        1.81625         159.545         16.0613 
        1.82239          158.28         15.9309 
        1.82853         157.676         15.8021 
        1.83466         156.728         15.6747 
        1.84078         155.914         15.5489 
        1.84692         154.658         15.4243 
        1.85306         154.229         15.3009 
         1.8592          153.22          15.179 
        1.86533         152.726         15.0586 
        1.87147         151.499         14.9393 
        1.87761         150.471         14.8212 
        1.88375         149.745         14.7046 
        1.88988           148.3         14.5894 
        1.89601          148.22         14.4753 
        1.90215         147.304         14.3623 
        1.90829         146.154         14.2507 
        1.91442         145.735         14.1402 
        1.92056         144.685         14.0309 
         1.9267         143.742         13.9228 
        1.93284         142.893         13.8157 
        1.93897         142.404         13.7099 
        1.94509         141.659         13.6055 
        1.95123         140.868         13.5018 
        1.95737         139.919         13.3993 
        1.96349         139.287          13.298 
        1.96964         138.305         13.1975 
        1.97578         137.471          13.098 
        1.98192         136.779         12.9997 
        1.98805         136.189         12.9024 
        1.99419         135.244         12.8061 
        2.00033         134.622         12.7108 
        2.00647           133.9         12.6164 
         2.0126          132.96         12.5232 
        2.01874         132.454         12.4308 
        2.02488         132.052         12.3392 
        2.03101         130.696         12.2487 
        2.03714         130.279         12.1593 
        2.04328         129.342         12.0706 
        2.04941         128.879         11.9828 
        2.05554         127.848         11.8961 
        2.06167         127.417           11.81 
        2.06781         126.447         11.7248 
        2.07396         126.056         11.6403 
        2.08009          125.14         11.5568 
        2.08622         124.237         11.4742 
        2.09237          123.85         11.3923 
        2.09851         123.105         11.3111 
        2.10464         122.685         11.2309 
        2.11077         121.983         11.1515 
        2.11691         121.277         11.0727 
        2.12305         120.715         10.9947 
        2.12918         119.919         10.9176 
        2.13531         119.215         10.8413 
        2.14145         118.522         10.7655 
         2.1476         117.669         10.6904 
        2.15372         117.534         10.6163 
        2.15985         116.688         10.5429 
        2.16599         115.993           10.47 
        2.17213         115.517         10.3978 
        2.17827         114.708         10.3264 
         2.1844          114.08         10.2556 
        2.19054         113.662         10.1855 
        2.19666         112.859         10.1162 
         2.2028         112.258         10.0475 
        2.20893         111.863         9.97933 
        2.21508         111.067         9.91174 
        2.22122         110.514         9.84477 
        2.22736         109.994         9.77855 
        2.23349         109.492         9.71296 
        2.23962           108.9         9.64794 
        2.24577          108.12         9.58346 
         2.2519         107.677         9.51966 
        2.25802         106.864         9.45654 
        2.26417          106.63         9.39382 
        2.27031         105.871         9.33161 
        2.27644         105.395         9.27015 
        2.28257         104.805         9.20925 
        2.28872         104.215         9.14878 
        2.29486          103.57         9.08886 
        2.30099         103.037         9.02961 
        2.30712         102.521         8.97086 
        2.31326         101.991         8.91253 
         2.3194         101.394         8.85476 
        2.32553         100.827         8.79759 
        2.33166         100.294         8.74095 
         2.3378         100.015         8.68474 
        2.34394         99.3132           8.629 
        2.35007         98.7858         8.57383 
        2.35619         98.2957         8.51921 
        2.36233         97.8662         8.46493 
        2.36848         97.2443         8.41102 
        2.37462         96.8496         8.35769 
        2.38075         96.2049         8.30488 
        2.38689         95.7405         8.25247 
        2.39303         95.1681         8.20053 
        2.39916         94.7595         8.14909 
        2.40529         94.5427          8.0981 
        2.41143         93.8606         8.04751 
        2.41757         93.3069         7.99733 
         2.4237         92.7851         7.94766 
        2.42983         92.3298         7.89843 
        2.43598         91.7388         7.84948 
        2.44211         91.4381         7.80103 
        2.44823         90.8806          7.7531 
        2.45437         90.4011         7.70544 
        2.46052         89.7775         7.65814 
        2.46665         89.5906         7.61133 
        2.47279          89.046         7.56492 
        2.47892         88.5487         7.51887 
        2.48507         88.1754         7.47316 
         2.4912         87.7317         7.42791 
