# k  (h/Mpc)    P(k)  (Mpc/h)^3    P_linear(k)  (Mpc/h)^3
     0.00783031         13640.6         13856.1 
       0.013688         16934.3         16814.5 
       0.019231           16803         16786.5 
      0.0249154         15041.6         15348.5 
      0.0312784         13067.9         13207.8 
      0.0375637         11261.8         11268.4 
      0.0433917         9715.38         9886.69 
      0.0492413         8828.96         8902.17 
      0.0555754         7902.15         8151.13 
      0.0619321         7537.06         7540.95 
       0.067871         6778.01          6968.8 
      0.0738098         6175.43         6341.35 
      0.0800417         5448.72         5643.47 
      0.0862327         4879.44         4975.74 
      0.0921407         4423.68         4424.29 
      0.0982031         3960.36         3980.16 
       0.104506         3737.49         3648.14 
       0.110769         3483.94         3417.22 
       0.116806         3286.56         3243.89 
       0.122832         3127.27         3078.48 
       0.129052         2881.92         2888.82 
       0.135211         2697.47         2676.53 
       0.141259         2545.43         2456.87 
       0.147318         2372.84         2246.11 
       0.153489         2168.31          2059.5 
       0.159709         2052.31         1909.69 
       0.165845         1978.51         1798.17 
       0.171974         1876.35         1713.19 
       0.178125         1790.85         1641.21 
       0.184229         1715.69         1570.98 
        0.19034         1609.48         1494.61 
       0.196428            1569         1411.28 
       0.202534         1503.17         1324.29 
       0.208729         1424.99         1238.88 
       0.214876            1358         1162.71 
       0.220989         1311.52         1098.56 
       0.227147         1254.44         1045.61 
        0.23329         1206.49         1001.84 
       0.239377         1185.34          963.59 
       0.245482         1109.24         926.742 
       0.251667         1100.79         888.504 
       0.257832         1056.27         848.782 
       0.263955         1019.67         808.654 
       0.270079         982.104         769.497 
        0.27624         969.963         732.844 
       0.282372         929.372         700.167 
        0.28843          917.05         671.783 
       0.294538         870.727         646.536 
       0.300721         866.808         623.319 
        0.30691         829.689         601.318 
       0.313033         813.422         579.897 
       0.319153         794.889         558.521 
       0.325316         769.548         537.088 
        0.33145         749.892         516.297 
       0.337538         738.034          496.64 
       0.343633         717.958         478.311 
       0.349808         692.788          461.24 
       0.355968         688.315         445.594 
       0.362074         679.116         431.187 
       0.368217         658.952         417.443 
       0.374374         631.503         404.158 
       0.380519         630.739         391.206 
       0.386598         613.639         378.665 
       0.392688         611.184         366.459 
        0.39888         593.051          354.51 
       0.405048         582.743          343.19 
       0.411186         573.997         332.565 
       0.417313         562.371         322.558 
       0.423458         552.123         313.071 
       0.429607         543.689         304.032 
       0.435692         530.928         295.432 
       0.441815         526.517         287.054 
       0.447964         515.548         278.902 
       0.454126         506.182         270.982 
       0.460267         496.259         263.354 
       0.466387          490.74         256.048 
        0.47254         482.775         249.018 
       0.478662         480.817         242.326 
       0.484765         464.938         235.937 
       0.490885         461.244         229.793 
       0.497035          452.42         223.852 
       0.503198         447.269         218.105 
       0.509342          443.67         212.556 
       0.515458         439.565         207.205 
       0.521598         428.784          202.01 
       0.527764         421.343         196.971 
       0.533884         419.266         192.144 
           0.54         413.592         187.491 
       0.546137         411.624         182.986 
       0.552299           403.7         178.624 
       0.558452         401.706          174.42 
       0.564573          395.97         170.374 
       0.570708         389.723         166.447 
       0.576825         380.907         162.649 
       0.582926          379.96         158.976 
       0.589034         376.564          155.41 
       0.595184         373.214         151.932 
       0.601379         367.855         148.541 
       0.607522         362.596         145.285 
       0.613639         361.233         142.142 
       0.619772         352.877         139.087 
       0.625918         351.864         136.117 
       0.632068         346.314         133.233 
       0.638161         345.008         130.458 
         0.6443          339.03         127.742 
       0.650464         336.365         125.095 
       0.656582         334.184         122.542 
       0.662703         332.852         120.061 
       0.668861         326.906         117.635 
       0.675024         323.764         115.276 
       0.681124         321.543         113.006 
       0.687237         318.315         110.793 
       0.693381          313.76          108.63 
       0.699536         310.524         106.521 
       0.705665         308.251         104.478 
       0.711789         306.326         102.491 
       0.717957         303.974         100.542 
        0.72409         301.257         98.6555 
       0.730186         297.823         96.8292 
       0.736317         294.783         95.0396 
       0.742472         293.358         93.2892 
       0.748622         290.399         91.5849 
        0.75476         287.414         89.9272 
       0.760888         284.254         88.3135 
       0.767043         284.588         86.7334 
       0.773185         280.999         85.1957 
       0.779291         276.482         83.7043 
       0.785407         275.832         82.2468 
       0.791564         272.554         80.8152 
       0.797719         270.137         79.4186 
       0.803834         268.084         78.0642 
       0.809972         267.079         76.7368 
       0.816124         266.611         75.4376 
       0.822261         262.925         74.1722 
       0.828378         260.769         72.9399 
       0.834502         259.412         71.7349 
       0.840667          256.51         70.5495 
       0.846816         254.923         69.3945 
       0.852925         253.533         68.2728 
       0.859047         251.544         67.1738 
       0.865192         248.666         66.0956 
       0.871341         246.822         65.0405 
       0.877463          245.48         64.0135 
       0.883569         244.455         63.0114 
       0.889708         241.787         62.0258 
       0.895864         239.404          61.059 
       0.902008         238.256         60.1149 
       0.908149         237.066         59.1916 
       0.914301         234.012         58.2863 
       0.920448         232.656         57.4009 
       0.926574         230.689         56.5372 
       0.932687          230.85         55.6933 
       0.938823         228.058         54.8636 
       0.944975         226.861         54.0491 
       0.951105         225.481         53.2542 
       0.957225         223.701         52.4767 
       0.963368         220.871         51.7122 
       0.969511         220.034          50.963 
       0.975621         217.984         50.2328 
       0.981748         218.083         49.5152 
       0.987916         216.006         48.8071 
        0.99406         213.465         48.1157 
        1.00019         213.431         47.4391 
        1.00632         211.717         46.7763 
        1.01246         210.059         46.1252 
        1.01859         209.981         45.4877 
        1.02471         207.062         44.8631 
        1.03085         205.275         44.2481 
        1.03698         204.457         43.6461 
        1.04314         202.595         43.0527 
        1.04929         201.449         42.4719 
        1.05541         201.537         41.9041 
        1.06154          198.92         41.3454 
        1.06769          198.68          40.796 
        1.07382         197.029         40.2586 
        1.07993           195.4          39.732 
        1.08607         194.852         39.2128 
        1.09222         193.631         38.7024 
        1.09836         192.055         38.2017 
        1.10449         190.077         37.7106 
        1.11063         188.516         37.2275 
        1.11677         188.256         36.7532 
         1.1229          186.77          36.288 
        1.12903         185.857         35.8305 
        1.13518         184.756         35.3806 
        1.14131         183.079         34.9387 
        1.14745         182.998         34.5046 
        1.15359         181.434         34.0779 
        1.15973         180.293         33.6583 
        1.16584         178.736         33.2476 
        1.17197         178.389         32.8432 
        1.17811         176.852         32.4444 
        1.18424         175.924         32.0534 
        1.19038         175.427         31.6677 
        1.19652          173.95         31.2885 
        1.20267         173.482         30.9156 
        1.20881         171.809         30.5489 
        1.21495          171.02         30.1887 
        1.22108         169.974         29.8345 
         1.2272         168.609         29.4867 
        1.23334         168.109         29.1438 
        1.23949         166.841         28.8055 
        1.24562         166.036         28.4736 
        1.25174         164.581         28.1475 
        1.25789         163.589         27.8255 
        1.26402         162.482         27.5091 
        1.27014         161.347         27.1984 
        1.27628         160.848         26.8917 
        1.28244         160.539         26.5891 
        1.28858         159.018         26.2916 
        1.29471         157.599         25.9993 
        1.30084         157.257         25.7118 
        1.30697         155.917         25.4282 
        1.31312         155.114         25.1485 
        1.31925         154.288         24.8739 
        1.32537          153.57         24.6036 
        1.33151         152.102         24.3365 
        1.33765         151.452         24.0734 
        1.34378         150.758         23.8148 
        1.34992         150.152         23.5599 
        1.35606         149.808         23.3081 
         1.3622         148.282         23.0605 
        1.36833         147.039          22.817 
        1.37445          146.43         22.5773 
        1.38059          145.58         22.3402 
        1.38675         144.942          22.106 
        1.39288         144.234         21.8762 
        1.39901         143.923         21.6497 
        1.40515         142.399         21.4259 
         1.4113         141.522         21.2054 
        1.41742         140.723         20.9888 
        1.42355         139.965         20.7749 
         1.4297         139.247         20.5633 
        1.43585         138.226         20.3548 
        1.44198         137.713         20.1499 
        1.44809         137.037         19.9483 
        1.45423         136.254         19.7487 
        1.46036         135.369         19.5522 
        1.46649         134.404         19.3583 
        1.47263          133.73         19.1669 
        1.47877         133.206         18.9782 
        1.48491         131.791         18.7917 
        1.49104         131.799         18.6082 
        1.49718         130.508         18.4269 
        1.50333         130.016         18.2478 
        1.50947         129.484         18.0715 
         1.5156         128.573         17.8977 
        1.52172         127.783         17.7262 
        1.52787         127.003         17.5567 
          1.534         126.473         17.3896 
        1.54013         125.677         17.2248 
        1.54627         125.126         17.0619 
        1.55241         124.146         16.9011 
        1.55855         123.463         16.7426 
        1.56467         123.016         16.5865 
         1.5708         122.102          16.432 
        1.57695          121.71         16.2793 
        1.58308         121.016         16.1289 
        1.58922         120.533         15.9802 
        1.59535         119.591         15.8335 
         1.6015         119.152         15.6885 
        1.60764         118.484         15.5453 
        1.61376         117.913         15.4044 
        1.61989          117.05          15.265 
        1.62604         116.466         15.1271 
        1.63218          116.05          14.991 
        1.63831         115.119         14.8569 
        1.64444         114.754         14.7243 
        1.65059         114.203         14.5931 
        1.65673         113.088         14.4636 
        1.66285         112.882         14.3361 
        1.66898         112.293           14.21 
        1.67512         111.765         14.0853 
        1.68127         110.946         13.9619 
         1.6874         110.073         13.8403 
        1.69353         109.787         13.7202 
        1.69967          109.33         13.6012 
        1.70581           108.6         13.4837 
        1.71193         108.123         13.3681 
        1.71806         107.541         13.2535 
        1.72421         106.771         13.1401 
        1.73035         106.613         13.0281 
        1.73649         105.828         12.9175 
        1.74262         105.091         12.8083 
        1.74876         104.829         12.7002 
        1.75489         103.964         12.5936 
        1.76101         103.403         12.4883 
        1.76715         102.833          12.384 
        1.77329         102.582         12.2809 
        1.77943         101.642         12.1788 
        1.78557         101.358         12.0781 
        1.79171         100.567         11.9785 
        1.79785         100.117           11.88 
        1.80399         99.5164         11.7826 
        1.81012         99.1303         11.6864 
        1.81625         98.5867         11.5914 
        1.82239         98.2659         11.4973 
        1.82853         97.6168         11.4043 
        1.83466         96.9405         11.3124 
        1.84078          96.688         11.2216 
        1.84692         95.9701         11.1316 
        1.85306         95.5343         11.0426 
         1.8592          95.084         10.9546 
        1.86533         94.3859         10.8677 
        1.87147         93.9655         10.7816 
        1.87761         93.5171         10.6964 
        1.88375         92.8245         10.6123 
        1.88988         92.4886         10.5291 
        1.89601         91.9683         10.4467 
        1.90215         91.5005         10.3652 
        1.90829         90.9604         10.2846 
        1.91442         90.5982         10.2049 
        1.92056          89.955         10.1261 
         1.9267         89.6892          10.048 
        1.93284         89.1528         9.97069 
        1.93897         88.7107         9.89436 
        1.94509         88.3264         9.81899 
        1.95123         87.8379         9.74422 
        1.95737         87.3017         9.67018 
        1.96349         86.8094          9.5971 
        1.96964          86.271         9.52456 
        1.97578         85.8752         9.45275 
        1.98192         85.7073         9.38182 
        1.98805         84.8947         9.31162 
        1.99419         84.6466         9.24213 
        2.00033         84.2709         9.17332 
        2.00647         83.7669         9.10523 
         2.0126         83.3121         9.03795 
        2.01874         82.7248         8.97125 
        2.02488         82.3726         8.90516 
        2.03101         81.8522         8.83986 
        2.03714         81.3637         8.77529 
        2.04328         81.1168         8.71128 
        2.04941         80.7104         8.64797 
        2.05554         80.3203         8.58533 
        2.06167         79.8409         8.52323 
        2.06781         79.3337         8.46173 
        2.07396         78.9428         8.40076 
        2.08009         78.7011         8.34049 
        2.08622         78.2226         8.28088 
        2.09237         77.8017         8.22174 
        2.09851         77.5108         8.16317 
        2.10464         76.9819         8.10526 
        2.11077         76.6926         8.04799 
        2.11691         76.3813         7.99114 
        2.12305         75.7472         7.93484 
        2.12918         75.3955         7.87922 
        2.13531         75.1249         7.82413 
        2.14145          74.505         7.76943 
         2.1476         74.1649          7.7152 
        2.15372          73.925         7.66176 
        2.15985         73.4845         7.60878 
        2.16599         73.1228         7.55614 
        2.17213         72.7523         7.50406 
        2.17827         72.3495         7.45249 
         2.1844         71.9446         7.40144 
        2.19054         71.8059         7.35086 
        2.19666         71.2967         7.30082 
         2.2028         71.1325         7.25121 
        2.20893         70.5645         7.20203 
        2.21508         70.2636         7.15326 
        2.22122         69.8916         7.10492 
        2.22736         69.5457         7.05714 
        2.23349         69.1594          7.0098 
        2.23962         68.7855         6.96287 
        2.24577         68.4921         6.91634 
         2.2519         68.1824         6.87029 
        2.25802         67.8335         6.82474 
        2.26417         67.3917         6.77948 
        2.27031         67.1444         6.73458 
        2.27644         66.7736         6.69023 
        2.28257         66.4033         6.64627 
        2.28872         66.0735         6.60263 
        2.29486         65.5558         6.55939 
        2.30099         65.2966         6.51663 
        2.30712         65.1469         6.47423 
        2.31326         64.8409         6.43213 
         2.3194          64.437         6.39044 
        2.32553         64.0634         6.34918 
        2.33166         63.7599         6.30831 
         2.3378         63.3244         6.26774 
        2.34394         63.1108         6.22751 
        2.35007         62.7563         6.18769 
        2.35619         62.4767         6.14828 
        2.36233         62.2067         6.10911 
        2.36848         61.8846          6.0702 
        2.37462         61.4364         6.03171 
        2.38075         61.3408         5.99359 
        2.38689         60.9378         5.95577 
        2.39303         60.6155         5.91829 
        2.39916         60.3018         5.88117 
        2.40529         60.0965         5.84436 
        2.41143         59.7582         5.80785 
        2.41757          59.426         5.77163 
         2.4237         59.2571         5.73579 
        2.42983         58.8093         5.70026 
        2.43598         58.5358         5.66494 
        2.44211          58.278         5.62997 
        2.44823         57.9999         5.59538 
        2.45437         57.6069         5.56098 
        2.46052         57.3758         5.52685 
        2.46665         57.1741         5.49306 
        2.47279          56.763         5.45957 
        2.47892         56.5511         5.42633 
        2.48507         56.2544         5.39334 
         2.4912         56.0218         5.36069 
