# k  (h/Mpc)    P(k)  (Mpc/h)^3    P_linear(k)  (Mpc/h)^3
     0.00783031         911.758         928.371 
       0.013688         1117.69         1128.01 
       0.019231         1119.47         1126.83 
      0.0249154         1019.69         1030.69 
      0.0312784         882.021         887.158 
      0.0375637         755.087         757.021 
      0.0433917         660.271         664.267 
      0.0492413         595.877         598.168 
      0.0555754         542.826         547.739 
      0.0619321         506.254         506.762 
       0.067871         464.642          468.33 
      0.0738098          422.74         426.176 
      0.0800417         375.478         379.284 
      0.0862327         332.398         334.415 
      0.0921407         296.285         297.357 
      0.0982031         265.934         267.511 
       0.104506         245.542         245.199 
       0.110769         229.643         229.681 
       0.116806         216.783         218.033 
       0.122832         206.518         206.916 
       0.129052         192.834         194.171 
       0.135211         178.723         179.903 
       0.141259         164.977         165.139 
       0.147318         151.559         150.974 
       0.153489         138.627         138.431 
       0.159709         128.787         128.362 
       0.165845         122.168         120.866 
       0.171974         115.481         115.155 
       0.178125         110.811         110.317 
       0.184229         106.336         105.597 
        0.19034         100.288         100.463 
       0.196428         95.4522         94.8626 
       0.202534         90.3813         89.0155 
       0.208729         84.3147         83.2744 
       0.214876         78.8907         78.1547 
       0.220989          75.289         73.8429 
       0.227147         71.0829         70.2839 
        0.23329         68.1609         67.3416 
       0.239377         65.7962         64.7706 
       0.245482         62.8263         62.2938 
       0.251667          60.841         59.7236 
       0.257832         58.1222         57.0536 
       0.263955          55.502         54.3564 
       0.270079         52.9512         51.7243 
        0.27624         50.9019         49.2606 
       0.282372          48.715         47.0642 
        0.28843          46.578         45.1562 
       0.294538          44.835         43.4593 
       0.300721         43.5853         41.8987 
        0.30691         41.7727         40.4198 
       0.313033         40.3796         38.9799 
       0.319153         38.5228         37.5431 
       0.325316         37.6687         36.1024 
        0.33145          36.158         34.7049 
       0.337538         34.9237         33.3836 
       0.343633         33.5807         32.1515 
       0.349808         32.5499          31.004 
       0.355968         31.5143         29.9524 
       0.362074         30.4847          28.984 
       0.368217         29.5725         28.0601 
       0.374374         28.5725         27.1671 
       0.380519         27.8132         26.2965 
       0.386598         27.0156         25.4535 
       0.392688         26.3084          24.633 
        0.39888         25.4435         23.8298 
       0.405048         24.7425         23.0689 
       0.411186         24.0696         22.3547 
       0.417313         23.2657         21.6821 
       0.423458         22.6604         21.0444 
       0.429607         21.9959         20.4368 
       0.435692         21.3606         19.8587 
       0.441815         20.8658         19.2956 
       0.447964         20.4484         18.7476 
       0.454126         19.7103         18.2152 
       0.460267         19.2688         17.7025 
       0.466387         18.6665         17.2114 
        0.47254         18.3045         16.7388 
       0.478662         17.9195          16.289 
       0.484765         17.3816         15.8595 
       0.490885         16.9622         15.4465 
       0.497035         16.7129         15.0472 
       0.503198         16.2505         14.6609 
       0.509342         15.8532         14.2879 
       0.515458         15.4644         13.9282 
       0.521598         15.1502          13.579 
       0.527764         14.7705         13.2402 
       0.533884         14.5102         12.9158 
           0.54         14.1683          12.603 
       0.546137         13.8903         12.3002 
       0.552299         13.6177          12.007 
       0.558452         13.2092         11.7244 
       0.564573         13.0131         11.4525 
       0.570708         12.7468         11.1885 
       0.576825         12.4172         10.9332 
       0.582926         12.1961         10.6863 
       0.589034         11.8542         10.4466 
       0.595184          11.667         10.2128 
       0.601379         11.4113         9.98486 
       0.607522         11.2376         9.76596 
       0.613639         11.0779         9.55473 
       0.619772         10.7752         9.34938 
       0.625918         10.6626         9.14974 
       0.632068         10.4852         8.95584 
       0.638161         10.2284          8.7693 
         0.6443         10.0181         8.58677 
       0.650464          9.8107         8.40881 
       0.656582         9.71562         8.23722 
       0.662703         9.53023         8.07043 
       0.668861         9.36051         7.90739 
       0.675024         9.16628         7.74878 
       0.681124         8.99977         7.59619 
       0.687237         8.86401         7.44745 
       0.693381         8.73003         7.30204 
       0.699536         8.49457          7.1603 
       0.705665         8.39278         7.02296 
       0.711789          8.2526         6.88939 
       0.717957           8.107          6.7584 
        0.72409         7.96817         6.63159 
       0.730186         7.85178         6.50882 
       0.736317         7.76756         6.38853 
       0.742472         7.63848         6.27086 
       0.748622         7.50289          6.1563 
        0.75476         7.34628         6.04487 
       0.760888         7.25072          5.9364 
       0.767043         7.16247         5.83019 
       0.773185         7.01288         5.72682 
       0.779291         6.94644         5.62657 
       0.785407         6.83054          5.5286 
       0.791564         6.72597         5.43237 
       0.797719         6.61359         5.33849 
       0.803834         6.55286         5.24745 
       0.809972         6.47082         5.15822 
       0.816124         6.33813         5.07089 
       0.822261          6.2333         4.98583 
       0.828378         6.15785           4.903 
       0.834502         6.10186         4.82199 
       0.840667          5.9783         4.74231 
       0.846816         5.88163         4.66467 
       0.852925         5.83052         4.58928 
       0.859047         5.74891          4.5154 
       0.865192         5.68628         4.44293 
       0.871341         5.61857         4.37201 
       0.877463         5.53382         4.30297 
       0.883569         5.43777         4.23561 
       0.889708         5.35289         4.16936 
       0.895864         5.29789         4.10436 
       0.902008          5.2276         4.04091 
       0.908149         5.17116         3.97884 
       0.914301         5.08338         3.91799 
       0.920448         5.01616         3.85848 
       0.926574         4.94768         3.80042 
       0.932687         4.89788         3.74369 
       0.938823         4.83752         3.68792 
       0.944975         4.77205         3.63317 
       0.951105         4.72175         3.57973 
       0.957225         4.69444         3.52747 
       0.963368         4.62352         3.47608 
       0.969511         4.56052         3.42572 
       0.975621         4.49674         3.37664 
       0.981748         4.45299          3.3284 
       0.987916         4.40072          3.2808 
        0.99406         4.32741         3.23432 
        1.00019         4.27753         3.18885 
        1.00632         4.24307         3.14429 
        1.01246         4.19381         3.10053 
        1.01859         4.14112         3.05767 
        1.02471         4.09313         3.01568 
        1.03085         4.04767         2.97435 
        1.03698         3.99384         2.93388 
        1.04314         3.95963         2.89399 
        1.04929         3.90874         2.85495 
        1.05541         3.86368         2.81678 
        1.06154         3.82638         2.77923 
        1.06769         3.79876          2.7423 
        1.07382         3.73946         2.70617 
        1.07993          3.6925         2.67078 
        1.08607         3.67271         2.63588 
        1.09222         3.62663         2.60157 
        1.09836         3.59473         2.56791 
        1.10449         3.55423          2.5349 
        1.11063         3.51162         2.50243 
        1.11677         3.48003         2.47054 
         1.1229         3.44356         2.43927 
        1.12903         3.40163         2.40852 
        1.13518          3.3721         2.37828 
        1.14131         3.32549         2.34857 
        1.14745         3.28037         2.31939 
        1.15359         3.26407         2.29071 
        1.15973         3.22034          2.2625 
        1.16584         3.19823          2.2349 
        1.17197         3.16499         2.20772 
        1.17811         3.13908         2.18091 
        1.18424         3.11229         2.15462 
        1.19038         3.08159          2.1287 
        1.19652         3.04942         2.10321 
        1.20267         3.02102         2.07814 
        1.20881         2.98929         2.05349 
        1.21495         2.96495         2.02928 
        1.22108         2.93557         2.00547 
         1.2272         2.91676         1.98209 
        1.23334          2.8779         1.95904 
        1.23949         2.84833          1.9363 
        1.24562         2.83244         1.91399 
        1.25174         2.79726         1.89207 
        1.25789         2.77648         1.87042 
        1.26402         2.74522         1.84916 
        1.27014         2.71992         1.82827 
        1.27628         2.70614         1.80765 
        1.28244         2.66968         1.78732 
        1.28858         2.65386         1.76732 
        1.29471         2.62443         1.74767 
        1.30084         2.59852         1.72834 
        1.30697         2.58942         1.70928 
        1.31312         2.54503         1.69048 
        1.31925         2.53442         1.67202 
        1.32537         2.51096         1.65385 
        1.33151         2.49513         1.63589 
        1.33765         2.46318         1.61821 
        1.34378         2.44417         1.60083 
        1.34992         2.43374         1.58369 
        1.35606         2.39782         1.56677 
         1.3622         2.38876         1.55012 
        1.36833         2.36619         1.53376 
        1.37445         2.34338         1.51764 
        1.38059         2.33012         1.50171 
        1.38675         2.31764         1.48597 
        1.39288         2.28936         1.47051 
        1.39901         2.26712         1.45529 
        1.40515         2.25086         1.44024 
         1.4113          2.2345         1.42542 
        1.41742         2.21756         1.41086 
        1.42355         2.20467         1.39648 
         1.4297         2.17856         1.38226 
        1.43585         2.16779         1.36825 
        1.44198         2.15407         1.35448 
        1.44809         2.12786         1.34092 
        1.45423         2.11202         1.32751 
        1.46036         2.09486          1.3143 
        1.46649         2.07863         1.30127 
        1.47263         2.06141          1.2884 
        1.47877         2.04205         1.27571 
        1.48491         2.02792         1.26318 
        1.49104         2.01624         1.25084 
        1.49718         2.00228         1.23866 
        1.50333         1.98456         1.22662 
        1.50947         1.97231         1.21476 
         1.5156         1.95556         1.20308 
        1.52172         1.94107         1.19156 
        1.52787         1.92576         1.18016 
          1.534          1.9128         1.16893 
        1.54013         1.89732         1.15785 
        1.54627         1.88022          1.1469 
        1.55241         1.86599         1.13609 
        1.55855         1.85646         1.12543 
        1.56467         1.84388         1.11494 
         1.5708         1.82444         1.10456 
        1.57695         1.81557         1.09429 
        1.58308         1.80178         1.08418 
        1.58922         1.79071         1.07419 
        1.59535         1.77738         1.06433 
         1.6015         1.76488         1.05458 
        1.60764         1.75459         1.04496 
        1.61376         1.74198         1.03548 
        1.61989         1.72775         1.02611 
        1.62604         1.71407         1.01684 
        1.63218         1.70883         1.00769 
        1.63831         1.69026        0.998678 
        1.64444         1.67862        0.989769 
        1.65059         1.67104        0.980949 
        1.65673         1.65773        0.972245 
        1.66285         1.64516        0.963671 
        1.66898          1.6374        0.955198 
        1.67512         1.62149        0.946811 
        1.68127         1.61166        0.938518 
         1.6874         1.60563        0.930342 
        1.69353         1.58706        0.922268 
        1.69967          1.5776        0.914272 
        1.70581         1.57389        0.906374 
        1.71193         1.55937          0.8986 
        1.71806         1.55306        0.890901 
        1.72421         1.54098        0.883277 
        1.73035         1.52945        0.875751 
        1.73649         1.52052        0.868315 
        1.74262         1.51073        0.860971 
        1.74876         1.50255        0.853708 
        1.75489         1.48786        0.846543 
        1.76101         1.47989        0.839464 
        1.76715         1.47185        0.832456 
        1.77329         1.46345        0.825519 
        1.77943         1.45085        0.818659 
        1.78557         1.44233        0.811888 
        1.79171         1.43769        0.805192 
        1.79785         1.42462         0.79857 
        1.80399         1.41742        0.792025 
        1.81012         1.41094        0.785562 
        1.81625         1.39921        0.779174 
        1.82239         1.39043        0.772848 
        1.82853         1.37743        0.766595 
        1.83466         1.37383        0.760418 
        1.84078         1.36418        0.754315 
        1.84692          1.3584         0.74827 
        1.85306          1.3478        0.742283 
         1.8592         1.34097        0.736372 
        1.86533          1.3313        0.730528 
        1.87147         1.32574        0.724741 
        1.87761         1.31692        0.719014 
        1.88375         1.30583        0.713356 
        1.88988          1.3021        0.707765 
        1.89601         1.29243        0.702231 
        1.90215         1.28301        0.696752 
        1.90829         1.27474        0.691334 
        1.91442          1.2695        0.685973 
        1.92056         1.26215        0.680674 
         1.9267          1.2544        0.675426 
        1.93284         1.25035        0.670231 
        1.93897         1.24098        0.665099 
        1.94509         1.23308        0.660033 
        1.95123         1.22444        0.655007 
        1.95737         1.21867         0.65003 
        1.96349         1.21107        0.645117 
        1.96964         1.20584        0.640242 
        1.97578         1.19826        0.635414 
        1.98192         1.19265        0.630647 
        1.98805         1.18317        0.625927 
        1.99419         1.17998        0.621256 
        2.00033         1.17574        0.616631 
        2.00647         1.16427        0.612054 
         2.0126         1.16021        0.607532 
        2.01874         1.15231        0.603048 
        2.02488         1.14778        0.598606 
        2.03101         1.13791        0.594216 
        2.03714          1.1309        0.589875 
        2.04328         1.12889        0.585573 
        2.04941         1.11994        0.581317 
        2.05554         1.11518        0.577107 
        2.06167         1.10768        0.572932 
        2.06781         1.10333        0.568799 
        2.07396          1.0958          0.5647 
        2.08009         1.09104        0.560649 
        2.08622         1.08346        0.556642 
        2.09237         1.08104        0.552666 
        2.09851         1.07453        0.548729 
        2.10464         1.07039        0.544836 
        2.11077         1.06276        0.540986 
        2.11691         1.05595        0.537165 
        2.12305         1.05229        0.533381 
        2.12918         1.04605        0.529642 
        2.13531         1.04094        0.525939 
        2.14145         1.03447        0.522262 
         2.1476         1.02834        0.518617 
        2.15372         1.02433        0.515025 
        2.15985          1.0177        0.511463 
        2.16599         1.01299        0.507925 
        2.17213         1.00746        0.504424 
        2.17827         1.00432        0.500957 
         2.1844        0.999359        0.497526 
        2.19054         0.99556        0.494126 
        2.19666        0.988904        0.490762 
         2.2028        0.983618        0.487427 
        2.20893        0.978226        0.484122 
        2.21508         0.97574        0.480843 
        2.22122        0.966401        0.477594 
        2.22736        0.962563        0.474382 
        2.23349        0.962047          0.4712 
        2.23962        0.953903        0.468046 
        2.24577        0.949335        0.464917 
         2.2519         0.94369        0.461822 
        2.25802        0.941152         0.45876 
        2.26417        0.934474        0.455718 
        2.27031        0.931313          0.4527 
        2.27644         0.92661        0.449718 
        2.28257        0.922738        0.446764 
        2.28872        0.917345         0.44383 
        2.29486        0.913671        0.440924 
        2.30099        0.907956        0.438049 
        2.30712        0.904141        0.435199 
        2.31326          0.9015        0.432369 
         2.3194        0.897203        0.429566 
        2.32553        0.893233        0.426793 
        2.33166         0.88709        0.424046 
         2.3378        0.882539        0.421319 
        2.34394        0.877842        0.418615 
        2.35007        0.874164        0.415938 
        2.35619        0.872046        0.413288 
        2.36233        0.865385        0.410655 
        2.36848        0.862647         0.40804 
        2.37462         0.85815        0.405453 
        2.38075        0.855453        0.402891 
        2.38689         0.85075        0.400348 
        2.39303        0.847518        0.397829 
        2.39916        0.841769        0.395333 
        2.40529        0.840245        0.392859 
        2.41143        0.835474        0.390405 
        2.41757        0.831825        0.387971 
         2.4237        0.829134        0.385561 
        2.42983        0.824412        0.383173 
        2.43598        0.821144        0.380798 
        2.44211        0.817605        0.378448 
        2.44823         0.81333        0.376123 
        2.45437        0.810219        0.373811 
        2.46052        0.807989        0.371516 
        2.46665        0.803439        0.369245 
        2.47279        0.799631        0.366994 
        2.47892        0.794908         0.36476 
        2.48507        0.792469        0.362542 
         2.4912        0.788569        0.360347 
