# k  (h/Mpc)    P(k)  (Mpc/h)^3    P_linear(k)  (Mpc/h)^3
     0.00783031         3591.86         3648.41 
       0.013688         4423.85         4430.31 
       0.019231         4417.92         4424.42 
      0.0249154         4001.45         4046.29 
      0.0312784         3467.72         3482.46 
      0.0375637         2975.19         2971.41 
      0.0433917         2590.39         2607.23 
      0.0492413         2343.29         2347.72 
      0.0555754         2123.37         2149.74 
      0.0619321         1996.49         1988.88 
       0.067871         1820.06         1838.02 
      0.0738098            1656         1672.56 
      0.0800417         1467.37         1488.51 
      0.0862327         1303.66         1312.41 
      0.0921407          1167.3         1166.97 
      0.0982031         1045.59         1049.84 
       0.104506         973.095         962.268 
       0.110769         909.043         901.366 
       0.116806         855.876         855.652 
       0.122832         816.888         812.024 
       0.129052         758.935         762.002 
       0.135211         705.203         706.008 
       0.141259         655.406         648.068 
       0.147318         604.673         592.477 
       0.153489         552.318         543.254 
       0.159709         516.222          503.74 
       0.165845         492.369         474.322 
       0.171974         464.503         451.908 
       0.178125         445.722         432.923 
       0.184229         428.236         414.398 
        0.19034         400.573         394.251 
       0.196428         385.605         372.273 
       0.202534          367.77         349.327 
       0.208729         344.012         326.797 
       0.214876         322.277         306.705 
       0.220989         309.791         289.784 
       0.227147         292.309         275.817 
        0.23329         280.768          264.27 
       0.239377         272.818         254.181 
       0.245482         257.278         244.461 
       0.251667         251.831         234.375 
       0.257832         241.905         223.897 
       0.263955         231.458         213.312 
       0.270079          221.62         202.983 
        0.27624          215.52         193.314 
       0.282372         206.667         184.695 
        0.28843          198.33         177.207 
       0.294538         190.383         170.548 
       0.300721         186.997         164.423 
        0.30691         178.609          158.62 
       0.313033         173.504         152.969 
       0.319153         165.592         147.331 
       0.325316         162.128         141.677 
        0.33145         155.871         136.193 
       0.337538          152.45         131.007 
       0.343633          146.98         126.173 
       0.349808         142.424         121.669 
       0.355968         139.045         117.542 
       0.362074         134.819         113.742 
       0.368217         130.981         110.116 
       0.374374         127.088         106.612 
       0.380519         124.097         103.195 
       0.386598         120.672         99.8873 
       0.392688         118.317         96.6674 
        0.39888         114.967         93.5155 
       0.405048         112.147         90.5294 
       0.411186         109.562         87.7267 
       0.417313         106.446          85.087 
       0.423458         103.949         82.5844 
       0.429607         101.302            80.2 
       0.435692         97.9748         77.9315 
       0.441815         96.9415         75.7216 
       0.447964         95.2698         73.5711 
       0.454126          91.104         71.4818 
       0.460267         89.8796         69.4699 
       0.466387         87.8737         67.5426 
        0.47254         86.3397         65.6881 
       0.478662         85.0627         63.9229 
       0.484765         82.6083         62.2376 
       0.490885         80.9767         60.6169 
       0.497035         79.9245         59.0497 
       0.503198         77.7149         57.5338 
       0.509342         75.8925         56.0698 
       0.515458         74.6253         54.6584 
       0.521598         73.5394         53.2879 
       0.527764         72.2112         51.9587 
       0.533884         70.9998         50.6854 
           0.54         69.5296          49.458 
       0.546137         68.6911         48.2697 
       0.552299          67.648         47.1191 
       0.558452         65.7665           46.01 
       0.564573         64.6257         44.9429 
       0.570708         63.8032         43.9068 
       0.576825         62.5797          42.905 
       0.582926         61.3167          41.936 
       0.589034         59.9709         40.9955 
       0.595184         59.2487         40.0781 
       0.601379         58.3972         39.1836 
       0.607522         57.0267         38.3245 
       0.613639         56.7867         37.4956 
       0.619772          55.382         36.6897 
       0.625918         54.9983         35.9063 
       0.632068         54.2058         35.1454 
       0.638161         53.3092         34.4133 
         0.6443         52.4176          33.697 
       0.650464         51.6258         32.9986 
       0.656582         51.1686         32.3253 
       0.662703         50.1289         31.6708 
       0.668861         49.4529         31.0309 
       0.675024         48.7277         30.4085 
       0.681124         47.9207         29.8097 
       0.687237         47.1075          29.226 
       0.693381         46.7447         28.6554 
       0.699536         45.7694         28.0991 
       0.705665          45.912         27.5602 
       0.711789         44.7058          27.036 
       0.717957          44.247          26.522 
        0.72409         43.6489         26.0243 
       0.730186          42.965         25.5425 
       0.736317         42.6986         25.0705 
       0.742472         41.9693         24.6087 
       0.748622         41.6189         24.1591 
        0.75476          41.038         23.7219 
       0.760888         40.4114         23.2962 
       0.767043         39.9784         22.8794 
       0.773185         39.3976         22.4737 
       0.779291         39.2183         22.0803 
       0.785407         38.8037         21.6959 
       0.791564         38.1407         21.3182 
       0.797719         37.4167         20.9498 
       0.803834         37.3609         20.5925 
       0.809972         36.8698         20.2424 
       0.816124         36.1967         19.8996 
       0.822261         35.9569         19.5659 
       0.828378         35.6823         19.2408 
       0.834502         35.2582         18.9229 
       0.840667         34.8917         18.6102 
       0.846816         34.3507         18.3055 
       0.852925         34.0617         18.0097 
       0.859047         33.6379         17.7198 
       0.865192         33.3565         17.4353 
       0.871341         33.1942          17.157 
       0.877463         32.5275         16.8861 
       0.883569         32.2472         16.6218 
       0.889708         31.9556         16.3618 
       0.895864         31.6673         16.1067 
       0.902008         31.4065         15.8577 
       0.908149         31.0882         15.6141 
       0.914301          30.974         15.3753 
       0.920448         30.4094         15.1418 
       0.926574         30.1994         14.9139 
       0.932687         29.8865         14.6913 
       0.938823         29.4812         14.4725 
       0.944975         29.3172         14.2576 
       0.951105         29.0474         14.0479 
       0.957225         28.7013         13.8428 
       0.963368         28.5949         13.6411 
       0.969511         28.3258         13.4435 
       0.975621         28.1008         13.2509 
       0.981748         27.7037         13.0616 
       0.987916           27.57         12.8748 
        0.99406          27.296         12.6924 
        1.00019         26.9678          12.514 
        1.00632         26.8309         12.3391 
        1.01246         26.6501         12.1674 
        1.01859         26.2555         11.9992 
        1.02471         26.2217         11.8344 
        1.03085         25.9726         11.6722 
        1.03698         25.5756         11.5134 
        1.04314         25.4124         11.3569 
        1.04929         25.1951         11.2036 
        1.05541         24.9349         11.0539 
        1.06154          24.835         10.9065 
        1.06769         24.6595         10.7616 
        1.07382         24.4131         10.6198 
        1.07993           24.31         10.4809 
        1.08607         23.9816         10.3439 
        1.09222         23.8892         10.2093 
        1.09836         23.6068         10.0772 
        1.10449         23.4824         9.94767 
        1.11063         23.1931         9.82025 
        1.11677         23.1244         9.69513 
         1.1229         23.0125         9.57242 
        1.12903         22.7046         9.45173 
        1.13518         22.5204         9.33305 
        1.14131         22.4683         9.21648 
        1.14745         22.2664         9.10198 
        1.15359         22.1646         8.98941 
        1.15973         21.9175         8.87871 
        1.16584         21.6728         8.77038 
        1.17197         21.6989         8.66372 
        1.17811         21.4083         8.55851 
        1.18424         21.2382         8.45536 
        1.19038          21.182         8.35362 
        1.19652         21.0309          8.2536 
        1.20267         20.8659         8.15523 
        1.20881         20.7293         8.05849 
        1.21495         20.5907         7.96348 
        1.22108         20.4281         7.87003 
         1.2272         20.2254         7.77831 
        1.23334          20.141         7.68785 
        1.23949         19.9616         7.59862 
        1.24562         19.8975         7.51106 
        1.25174          19.779         7.42502 
        1.25789         19.6207         7.34008 
        1.26402         19.5428         7.25662 
        1.27014         19.3313         7.17468 
        1.27628         19.1658         7.09376 
        1.28244         19.1146         7.01394 
        1.28858         19.0427         6.93546 
        1.29471          18.867         6.85836 
        1.30084         18.7251         6.78252 
        1.30697         18.6083         6.70771 
        1.31312         18.4387         6.63392 
        1.31925         18.3403         6.56148 
        1.32537         18.2887         6.49019 
        1.33151         18.1216         6.41972 
        1.33765         18.0529         6.35033 
        1.34378         17.9563         6.28212 
        1.34992         17.7371         6.21486 
        1.35606         17.7127         6.14844 
         1.3622         17.6011         6.08312 
        1.36833         17.4624         6.01891 
        1.37445         17.4271         5.95566 
        1.38059         17.2951         5.89313 
        1.38675         17.1102         5.83135 
        1.39288         17.0803         5.77071 
        1.39901         16.9422         5.71096 
        1.40515         16.8747         5.65193 
         1.4113         16.7531         5.59376 
        1.41742         16.6227         5.53664 
        1.42355         16.5712         5.48021 
         1.4297         16.4901         5.42439 
        1.43585         16.4371         5.36938 
        1.44198         16.2702         5.31535 
        1.44809         16.2027         5.26217 
        1.45423         16.1133         5.20952 
        1.46036         16.0438         5.15768 
        1.46649         15.9541         5.10654 
        1.47263         15.8246         5.05605 
        1.47877         15.7513         5.00627 
        1.48491         15.6818         4.95708 
        1.49104         15.6302         4.90865 
        1.49718         15.4958         4.86084 
        1.50333         15.4402          4.8136 
        1.50947          15.367         4.76708 
         1.5156         15.2299         4.72124 
        1.52172         15.1571         4.67601 
        1.52787         15.1045         4.63128 
          1.534         14.9956          4.5872 
        1.54013          14.885         4.54374 
        1.54627         14.8274         4.50076 
        1.55241         14.7536         4.45834 
        1.55855         14.6747         4.41652 
        1.56467          14.603         4.37536 
         1.5708         14.5753         4.33461 
        1.57695         14.4382         4.29432 
        1.58308         14.4106         4.25464 
        1.58922         14.3233         4.21543 
        1.59535         14.2466         4.17673 
         1.6015         14.1545         4.13847 
        1.60764         14.1004          4.1007 
        1.61376         14.0482         4.06352 
        1.61989         13.9218         4.02676 
        1.62604         13.9179         3.99038 
        1.63218         13.8203         3.95448 
        1.63831         13.7784          3.9191 
        1.64444         13.6574         3.88414 
        1.65059         13.6013         3.84952 
        1.65673         13.5757         3.81537 
        1.66285         13.4498         3.78172 
        1.66898         13.4342         3.74847 
        1.67512         13.3664         3.71556 
        1.68127         13.2869         3.68301 
         1.6874         13.2183         3.65093 
        1.69353         13.1605         3.61924 
        1.69967         13.0903         3.58786 
        1.70581         13.0311         3.55687 
        1.71193         12.9541         3.52636 
        1.71806         12.9204         3.49615 
        1.72421          12.834         3.46623 
        1.73035          12.795         3.43669 
        1.73649         12.7333         3.40751 
        1.74262          12.701         3.37869 
        1.74876         12.6302         3.35019 
        1.75489         12.5724         3.32208 
        1.76101         12.4834         3.29429 
        1.76715         12.4849         3.26679 
        1.77329         12.3808         3.23957 
        1.77943         12.3215         3.21265 
        1.78557         12.2914         3.18608 
        1.79171         12.2544          3.1598 
        1.79785         12.1501         3.13382 
        1.80399         12.1131         3.10813 
        1.81012         12.0768         3.08277 
        1.81625         12.0016          3.0577 
        1.82239         11.9629         3.03287 
        1.82853         11.8722         3.00834 
        1.83466         11.8343         2.98409 
        1.84078         11.7556         2.96015 
        1.84692         11.7483         2.93642 
        1.85306         11.6837         2.91293 
         1.8592         11.6319         2.88973 
        1.86533          11.595          2.8668 
        1.87147         11.5392         2.84409 
        1.87761         11.5029         2.82161 
        1.88375         11.4074         2.79941 
        1.88988          11.406         2.77747 
        1.89601         11.3477         2.75575 
        1.90215          11.283         2.73425 
        1.90829         11.2447         2.71299 
        1.91442         11.1975         2.69195 
        1.92056         11.1576         2.67116 
         1.9267          11.109         2.65056 
        1.93284         11.0442         2.63017 
        1.93897         10.9892         2.61004 
        1.94509          10.953         2.59016 
        1.95123         10.9175         2.57043 
        1.95737         10.8734          2.5509 
        1.96349          10.825         2.53162 
        1.96964         10.7721         2.51249 
        1.97578         10.7342         2.49354 
        1.98192          10.672         2.47483 
        1.98805         10.6513         2.45632 
        1.99419         10.5959         2.43798 
        2.00033          10.563         2.41983 
        2.00647         10.5255         2.40187 
         2.0126         10.4529         2.38412 
        2.01874         10.4208         2.36653 
        2.02488         10.3618          2.3491 
        2.03101         10.3557         2.33187 
        2.03714         10.3053         2.31484 
        2.04328         10.2604         2.29795 
        2.04941         10.2005         2.28125 
        2.05554         10.1926         2.26473 
        2.06167         10.1311         2.24835 
        2.06781         10.1119         2.23213 
        2.07396         10.0765         2.21604 
        2.08009           10.03         2.20014 
        2.08622         9.95814         2.18442 
        2.09237         9.95561         2.16882 
        2.09851         9.91658         2.15337 
        2.10464         9.86329         2.13809 
        2.11077         9.81815         2.12298 
        2.11691         9.77925         2.10799 
        2.12305         9.75195         2.09314 
        2.12918         9.71722         2.07846 
        2.13531         9.68108         2.06393 
        2.14145         9.64062          2.0495 
         2.1476         9.60997          2.0352 
        2.15372         9.57035          2.0211 
        2.15985         9.53607         2.00712 
        2.16599         9.50207         1.99324 
        2.17213         9.47383          1.9795 
        2.17827         9.43503          1.9659 
         2.1844         9.39798         1.95243 
        2.19054          9.3411         1.93909 
        2.19666         9.32856         1.92589 
         2.2028         9.28759          1.9128 
        2.20893         9.26961         1.89983 
        2.21508         9.21198         1.88696 
        2.22122         9.17255         1.87421 
        2.22736          9.1496         1.86161 
        2.23349         9.09857         1.84912 
        2.23962         9.08968         1.83674 
        2.24577         9.03972         1.82447 
         2.2519          9.0202         1.81232 
        2.25802         8.97995          1.8003 
        2.26417         8.94982         1.78836 
        2.27031         8.91181         1.77652 
        2.27644         8.88051         1.76482 
        2.28257         8.85784         1.75322 
        2.28872         8.81371         1.74171 
        2.29486         8.79196         1.73031 
        2.30099         8.78103         1.71903 
        2.30712         8.73815         1.70784 
        2.31326         8.69726         1.69674 
         2.3194         8.65514         1.68574 
        2.32553         8.64016         1.67486 
        2.33166         8.59178         1.66407 
         2.3378         8.57448         1.65337 
        2.34394         8.54458         1.64276 
        2.35007         8.50255         1.63226 
        2.35619         8.47127         1.62186 
        2.36233         8.43686         1.61153 
        2.36848         8.42959         1.60126 
        2.37462         8.39549         1.59111 
        2.38075         8.34653         1.58105 
        2.38689          8.3273         1.57108 
        2.39303         8.29829         1.56119 
        2.39916         8.27771          1.5514 
        2.40529         8.25337         1.54169 
        2.41143         8.21479         1.53206 
        2.41757         8.20202          1.5225 
         2.4237         8.16383         1.51305 
        2.42983         8.13343         1.50368 
        2.43598         8.12439         1.49436 
        2.44211         8.07749         1.48513 
        2.44823         8.05649         1.47601 
        2.45437          8.0372         1.46694 
        2.46052         7.98944         1.45793 
        2.46665         7.96797         1.44902 
        2.47279          7.9392         1.44018 
        2.47892         7.90717         1.43142 
        2.48507         7.88336         1.42271 
         2.4912         7.86165          1.4141 
