# k  (h/Mpc)    P(k)  (Mpc/h)^3    P_linear(k)  (Mpc/h)^3
     0.00783031         16159.3         16409.8 
       0.013688         20085.8         19911.7 
       0.019231         19903.9         19877.6 
      0.0249154         17776.9         18174.3 
      0.0312784         15448.7         15639.1 
      0.0375637         13324.6         13342.5 
      0.0433917         11474.7         11706.3 
      0.0492413         10436.3         10540.5 
      0.0555754         9317.68         9651.19 
      0.0619321         8908.03         8928.67 
       0.067871         7991.18         8251.19 
      0.0738098         7283.87         7508.25 
      0.0800417         6422.38         6681.93 
      0.0862327         5760.33         5891.32 
      0.0921407         5235.68         5238.39 
      0.0982031         4689.55         4712.52 
       0.104506         4434.82          4319.4 
       0.110769         4133.07         4045.99 
       0.116806         3903.38         3840.76 
       0.122832         3710.03         3644.91 
       0.129052         3415.57         3420.36 
       0.135211         3200.22         3169.01 
       0.141259         3028.78         2908.92 
       0.147318          2830.2         2659.38 
       0.153489         2587.72         2438.43 
       0.159709         2452.77         2261.06 
       0.165845         2370.57         2129.02 
       0.171974         2250.57          2028.4 
       0.178125         2146.37         1943.18 
       0.184229         2052.71         1860.03 
        0.19034         1934.27          1769.6 
       0.196428         1885.47         1670.95 
       0.202534         1805.15         1567.95 
       0.208729         1716.39         1466.82 
       0.214876         1643.41         1376.64 
       0.220989         1586.81         1300.69 
       0.227147         1522.39         1237.99 
        0.23329         1464.46         1186.17 
       0.239377         1441.37         1140.88 
       0.245482         1351.19         1097.25 
       0.251667          1342.4         1051.98 
       0.257832         1287.59         1004.95 
       0.263955          1243.4         957.437 
       0.270079         1199.38         911.074 
        0.27624         1184.83         867.678 
       0.282372          1135.7         828.989 
        0.28843         1127.05         795.382 
       0.294538         1070.53         765.491 
       0.300721         1064.92         738.002 
        0.30691         1022.35         711.952 
       0.313033         1002.03          686.59 
       0.319153         983.591         661.282 
       0.325316         951.544         635.905 
        0.33145         929.417         611.289 
       0.337538          913.02         588.015 
       0.343633         891.827         566.314 
       0.349808          860.92         546.101 
       0.355968         855.228         527.577 
       0.362074         846.356         510.519 
       0.368217         819.841         494.246 
       0.374374          787.88         478.518 
       0.380519         788.942         463.182 
       0.386598         766.362         448.334 
       0.392688         763.687         433.882 
        0.39888         741.287         419.735 
       0.405048         730.886         406.332 
       0.411186         720.714         393.752 
       0.417313         705.658         381.904 
       0.423458         692.764         370.671 
       0.429607         684.012         359.969 
       0.435692         668.709         349.787 
       0.441815         662.906         339.868 
       0.447964         649.403         330.216 
       0.454126         642.006         320.838 
       0.460267         626.818         311.808 
       0.466387         619.731         303.157 
        0.47254         613.595         294.833 
       0.478662         608.723          286.91 
       0.484765         589.712         279.346 
       0.490885         585.798         272.072 
       0.497035         574.024         265.038 
       0.503198         569.626         258.233 
       0.509342         564.407         251.663 
       0.515458         560.376         245.328 
       0.521598         546.074         239.176 
       0.527764         536.694          233.21 
       0.533884         534.542         227.495 
           0.54         528.268         221.986 
       0.546137         524.649         216.653 
       0.552299         516.406         211.488 
       0.558452         513.183          206.51 
       0.564573         506.581         201.721 
       0.570708         500.015          197.07 
       0.576825         486.997         192.574 
       0.582926         488.078         188.225 
       0.589034         483.467         184.003 
       0.595184         479.263         179.886 
       0.601379         471.965          175.87 
       0.607522         465.545         172.015 
       0.613639         464.773         168.294 
       0.619772         454.721         164.677 
       0.625918         452.763         161.161 
       0.632068         446.047         157.746 
       0.638161         444.389          154.46 
         0.6443         436.834         151.245 
       0.650464         434.378          148.11 
       0.656582         430.949         145.088 
       0.662703         429.542          142.15 
       0.668861         422.257         139.278 
       0.675024         418.817         136.485 
       0.681124         415.567         133.797 
       0.687237         411.898         131.177 
       0.693381         406.296         128.616 
       0.699536         400.826         126.119 
       0.705665          399.24           123.7 
       0.711789         397.317         121.347 
       0.717957         393.748          119.04 
        0.72409         391.368         116.807 
       0.730186         386.018         114.644 
       0.736317         382.903         112.525 
       0.742472         381.017         110.453 
       0.748622         376.798         108.435 
        0.75476         371.964         106.472 
       0.760888         368.415         104.562 
       0.767043         368.894         102.691 
       0.773185         364.795          100.87 
       0.779291         359.994         99.1046 
       0.785407         358.533          97.379 
       0.791564          354.14         95.6839 
       0.797719          352.03         94.0304 
       0.803834          348.36         92.4268 
       0.809972         347.744         90.8551 
       0.816124          346.68         89.3169 
       0.822261         342.097         87.8187 
       0.828378         339.692         86.3597 
       0.834502          336.52         84.9329 
       0.840667         333.899         83.5295 
       0.846816          332.36         82.1619 
       0.852925         329.972         80.8339 
       0.859047          327.93         79.5327 
       0.865192         323.989         78.2562 
       0.871341         321.491          77.007 
       0.877463         320.949          75.791 
       0.883569         318.462         74.6045 
       0.889708          315.52         73.4376 
       0.895864         313.888         72.2928 
       0.902008         311.393         71.1751 
       0.908149         308.492         70.0819 
       0.914301         305.775           69.01 
       0.920448         304.146         67.9618 
       0.926574         300.282         66.9392 
       0.932687         300.485           65.94 
       0.938823         297.309         64.9577 
       0.944975         296.888         63.9933 
       0.951105         294.029         63.0521 
       0.957225         292.064         62.1316 
       0.963368         288.437         61.2264 
       0.969511         287.588         60.3394 
       0.975621         285.391         59.4749 
       0.981748         284.503         58.6252 
       0.987916         282.693         57.7869 
        0.99406          278.52         56.9682 
        1.00019         277.721         56.1672 
        1.00632         276.448         55.3824 
        1.01246         274.083         54.6115 
        1.01859         274.582         53.8567 
        1.02471         270.104         53.1172 
        1.03085         268.714         52.3891 
        1.03698         267.632         51.6762 
        1.04314         265.066         50.9737 
        1.04929         263.134          50.286 
        1.05541         263.745         49.6138 
        1.06154         259.343         48.9523 
        1.06769         258.885         48.3019 
        1.07382         256.956         47.6655 
        1.07993         255.341         47.0421 
        1.08607         254.699         46.4273 
        1.09222         252.269          45.823 
        1.09836         250.636         45.2302 
        1.10449         248.214         44.6487 
        1.11063         246.151         44.0768 
        1.11677         245.867         43.5152 
         1.1229         243.857         42.9644 
        1.12903         242.638         42.4228 
        1.13518         240.823         41.8901 
        1.14131         239.082         41.3669 
        1.14745         238.867         40.8529 
        1.15359         236.678         40.3477 
        1.15973         234.889         39.8508 
        1.16584         233.359         39.3646 
        1.17197         233.393         38.8859 
        1.17811         230.355         38.4136 
        1.18424         229.069         37.9507 
        1.19038         228.471          37.494 
        1.19652         226.476         37.0451 
        1.20267         226.148         36.6036 
        1.20881         224.051         36.1694 
        1.21495          222.68          35.743 
        1.22108         221.309         35.3235 
         1.2272         219.884         34.9118 
        1.23334         219.101         34.5058 
        1.23949         217.202         34.1053 
        1.24562         216.418         33.7123 
        1.25174         214.941         33.3262 
        1.25789         213.365         32.9449 
        1.26402         211.519         32.5703 
        1.27014         210.414         32.2025 
        1.27628         209.334         31.8393 
        1.28244         209.256         31.4811 
        1.28858         206.932         31.1288 
        1.29471         205.617         30.7828 
        1.30084         204.538         30.4424 
        1.30697          203.15         30.1066 
        1.31312         201.461         29.7754 
        1.31925         200.692         29.4503 
        1.32537         200.105         29.1303 
        1.33151         198.081          28.814 
        1.33765         196.774         28.5026 
        1.34378         196.146         28.1964 
        1.34992         195.136         27.8945 
        1.35606         195.051         27.5964 
         1.3622         192.996         27.3032 
        1.36833          191.25          27.015 
        1.37445         190.594         26.7311 
        1.38059         189.026         26.4505 
        1.38675          188.41         26.1732 
        1.39288          187.34          25.901 
        1.39901         186.722         25.6328 
        1.40515         184.906         25.3679 
         1.4113         184.037         25.1068 
        1.41742         182.666         24.8504 
        1.42355         181.831         24.5971 
         1.4297         180.378         24.3466 
        1.43585         179.663         24.0997 
        1.44198          178.81         23.8572 
        1.44809         177.894         23.6185 
        1.45423         176.994         23.3822 
        1.46036         175.738         23.1495 
        1.46649         174.526           22.92 
        1.47263         173.461         22.6933 
        1.47877         172.417         22.4699 
        1.48491         170.886         22.2491 
        1.49104         170.737         22.0318 
        1.49718         169.054         21.8172 
        1.50333         168.431         21.6051 
        1.50947         167.513         21.3963 
         1.5156         166.335         21.1906 
        1.52172         165.643         20.9876 
        1.52787          164.09         20.7868 
          1.534         163.842          20.589 
        1.54013         162.649         20.3939 
        1.54627         161.654          20.201 
        1.55241         160.664         20.0106 
        1.55855         159.759         19.8229 
        1.56467          158.54         19.6382 
         1.5708         157.873         19.4553 
        1.57695         157.271         19.2744 
        1.58308         156.304         19.0963 
        1.58922         155.444         18.9203 
        1.59535         154.109         18.7466 
         1.6015         153.708         18.5749 
        1.60764           152.7         18.4054 
        1.61376         151.801         18.2385 
        1.61989         150.985         18.0735 
        1.62604         149.829         17.9103 
        1.63218         149.435         17.7491 
        1.63831         148.269         17.5903 
        1.64444         147.624         17.4334 
        1.65059         146.762          17.278 
        1.65673         145.641         17.1247 
        1.66285         145.078         16.9737 
        1.66898          144.02         16.8245 
        1.67512         143.748         16.6767 
        1.68127         142.425         16.5306 
         1.6874          141.57         16.3866 
        1.69353         141.027         16.2444 
        1.69967         140.004         16.1036 
        1.70581         139.352         15.9645 
        1.71193         138.425         15.8276 
        1.71806         137.904         15.6919 
        1.72421         137.087         15.5577 
        1.73035          136.72         15.4251 
        1.73649         135.766         15.2941 
        1.74262          134.79         15.1648 
        1.74876         134.174         15.0368 
        1.75489         133.323         14.9106 
        1.76101          132.28         14.7859 
        1.76715         132.041         14.6625 
        1.77329         131.453         14.5403 
        1.77943         130.496         14.4195 
        1.78557         129.957         14.3002 
        1.79171         129.105         14.1823 
        1.79785         128.283         14.0657 
        1.80399          127.57         13.9504 
        1.81012         126.943         13.8365 
        1.81625         126.391          13.724 
        1.82239         125.717         13.6126 
        1.82853          124.94         13.5025 
        1.83466         124.162         13.3937 
        1.84078         123.655         13.2862 
        1.84692         122.537         13.1797 
        1.85306         122.414         13.0742 
         1.8592         121.505         12.9701 
        1.86533         120.761         12.8672 
        1.87147         119.983         12.7653 
        1.87761         119.279         12.6644 
        1.88375         118.575         12.5647 
        1.88988         117.981         12.4663 
        1.89601         117.457         12.3688 
        1.90215         116.776         12.2723 
        1.90829         116.139         12.1768 
        1.91442         115.598         12.0824 
        1.92056          114.82         11.9891 
         1.9267         114.445         11.8967 
        1.93284         113.656         11.8051 
        1.93897         113.023         11.7148 
        1.94509         112.532         11.6255 
        1.95123          111.95          11.537 
        1.95737         111.378         11.4493 
        1.96349          110.73         11.3628 
        1.96964          109.77         11.2769 
        1.97578         109.192         11.1919 
        1.98192         108.921         11.1079 
        1.98805         108.158         11.0248 
        1.99419         107.729         10.9425 
        2.00033         106.972         10.8611 
        2.00647         106.638         10.7804 
         2.0126         105.769         10.7008 
        2.01874         105.204         10.6218 
        2.02488         104.915         10.5436 
        2.03101         104.036         10.4663 
        2.03714         103.526         10.3898 
        2.04328         103.021          10.314 
        2.04941         102.413         10.2391 
        2.05554          101.81         10.1649 
        2.06167         101.488         10.0914 
        2.06781         100.723         10.0186 
        2.07396         100.296         9.94636 
        2.08009         99.8259           9.875 
        2.08622          99.115         9.80443 
        2.09237         98.6809         9.73441 
        2.09851         98.1339         9.66506 
        2.10464         97.7303         9.59649 
        2.11077         97.1717         9.52868 
        2.11691         96.7651         9.46138 
        2.12305         96.0305         9.39472 
        2.12918         95.4381         9.32886 
        2.13531         95.0524         9.26364 
        2.14145          94.339         9.19888 
         2.1476         93.8261         9.13467 
        2.15372         93.5247          9.0714 
        2.15985         93.0615         9.00867 
        2.16599         92.3818         8.94635 
        2.17213         91.9701         8.88469 
        2.17827         91.5261         8.82362 
         2.1844         90.8899         8.76319 
        2.19054         90.6023          8.7033 
        2.19666         90.1645         8.64406 
         2.2028         89.5681         8.58531 
        2.20893          89.194         8.52709 
        2.21508         88.6837         8.46934 
        2.22122         88.1714         8.41211 
        2.22736         87.7061         8.35553 
        2.23349         87.3484         8.29949 
        2.23962         86.9062         8.24393 
        2.24577         86.4193         8.18883 
         2.2519         86.0774         8.13431 
        2.25802         85.3537         8.08038 
        2.26417          85.051         8.02679 
        2.27031         84.5928         7.97364 
        2.27644         84.0829         7.92112 
        2.28257         83.5705         7.86908 
        2.28872         83.4115         7.81741 
        2.29486         82.7053         7.76621 
        2.30099         82.2882         7.71558 
        2.30712         81.9985         7.66538 
        2.31326         81.5048         7.61554 
         2.3194         81.0431         7.56617 
        2.32553         80.7357         7.51733 
        2.33166          80.291         7.46893 
         2.3378          79.752          7.4209 
        2.34394         79.3932         7.37327 
        2.35007         79.0301         7.32613 
        2.35619         78.6646         7.27946 
        2.36233          78.141         7.23308 
        2.36848         77.7144         7.18701 
        2.37462          77.293         7.14144 
        2.38075         76.9805         7.09632 
        2.38689         76.5402         7.05154 
        2.39303         76.0268         7.00716 
        2.39916         75.7822          6.9632 
        2.40529         75.4955         6.91963 
        2.41143         74.8783          6.8764 
        2.41757         74.6697         6.83352 
         2.4237         74.2813         6.79109 
        2.42983         73.8198         6.74902 
        2.43598         73.4011         6.70719 
        2.44211         73.2566         6.66579 
        2.44823          72.737         6.62484 
        2.45437         72.1817         6.58411 
        2.46052         71.9219          6.5437 
        2.46665         71.6802         6.50369 
        2.47279         71.1755         6.46404 
        2.47892         70.8787         6.42469 
        2.48507         70.4721         6.38563 
         2.4912         70.1908         6.34697 
