# k  (h/Mpc)    P(k)  (Mpc/h)^3    P_linear(k)  (Mpc/h)^3
     0.00783031         1317.59         1339.86 
       0.013688         1616.79         1627.75 
       0.019231         1618.43         1625.92 
      0.0249154         1472.52         1487.14 
      0.0312784         1274.23         1280.02 
      0.0375637         1091.33         1092.24 
      0.0433917         953.476         958.402 
      0.0492413         860.897         863.028 
      0.0555754         783.454         790.266 
      0.0619321         731.905         731.142 
       0.067871         670.839         675.691 
      0.0738098         610.319         614.871 
      0.0800417         541.821         547.216 
      0.0862327         479.989          482.48 
      0.0921407         428.174         429.014 
      0.0982031         384.123         385.953 
       0.104506         355.235         353.761 
       0.110769         332.158         331.372 
       0.116806         313.326         314.567 
       0.122832         298.666         298.529 
       0.129052         278.591          280.14 
       0.135211         258.295         259.555 
       0.141259         238.734         238.254 
       0.147318         219.505         217.817 
       0.153489         200.703         199.721 
       0.159709         186.639         185.194 
       0.165845         177.266         174.379 
       0.171974         167.424         166.139 
       0.178125         160.685          159.16 
       0.184229         154.249         152.349 
        0.19034         145.207         144.943 
       0.196428          138.51         136.863 
       0.202534         131.371         128.427 
       0.208729         122.573         120.144 
       0.214876         114.668         112.757 
       0.220989         109.628         106.536 
       0.227147         103.423         101.402 
        0.23329         99.2065         97.1567 
       0.239377         95.8823         93.4474 
       0.245482         91.3386         89.8741 
       0.251667         88.6461         86.1659 
       0.257832         84.7777         82.3138 
       0.263955         80.9672         78.4223 
       0.270079         77.3076         74.6249 
        0.27624         74.4845         71.0704 
       0.282372         71.3197         67.9016 
        0.28843         68.2045         65.1489 
       0.294538         65.6365         62.7006 
       0.300721         63.9271          60.449 
        0.30691         61.2212         58.3154 
       0.313033         59.2179          56.238 
       0.319153         56.4433         54.1651 
       0.325316          55.286         52.0865 
        0.33145         53.0576         50.0703 
       0.337538          51.367         48.1639 
       0.343633         49.4132         46.3864 
       0.349808         47.9128         44.7309 
       0.355968         46.4409         43.2136 
       0.362074         44.9378         41.8164 
       0.368217         43.6036         40.4835 
       0.374374         42.1792         39.1952 
       0.380519         41.0739         37.9391 
       0.386598         39.9054         36.7229 
       0.392688         38.9185         35.5391 
        0.39888          37.666         34.3803 
       0.405048         36.6677         33.2825 
       0.411186         35.7108         32.2521 
       0.417313         34.5169         31.2816 
       0.423458         33.6241         30.3616 
       0.429607         32.6729          29.485 
       0.435692         31.6986          28.651 
       0.441815         31.0441         27.8385 
       0.447964         30.4588         27.0479 
       0.454126         29.3036         26.2798 
       0.460267         28.7079         25.5401 
       0.466387         27.8171         24.8316 
        0.47254         27.3277         24.1498 
       0.478662          26.791         23.5008 
       0.484765         25.9822         22.8812 
       0.490885         25.3678         22.2854 
       0.497035         25.0169         21.7093 
       0.503198         24.3365         21.1519 
       0.509342         23.7241         20.6137 
       0.515458         23.1758         20.0948 
       0.521598         22.7374          19.591 
       0.527764          22.201         19.1023 
       0.533884         21.8128         18.6342 
           0.54         21.3151         18.1829 
       0.546137          20.925         17.7461 
       0.552299         20.5454          17.323 
       0.558452         19.9117         16.9153 
       0.564573         19.6314          16.523 
       0.570708         19.2585         16.1421 
       0.576825          18.761         15.7737 
       0.582926         18.4213         15.4175 
       0.589034         17.9182         15.0718 
       0.595184         17.6606         14.7345 
       0.601379         17.2887         14.4056 
       0.607522         17.0147         14.0898 
       0.613639         16.7988          13.785 
       0.619772         16.3461         13.4887 
       0.625918         16.2203         13.2007 
       0.632068          15.948          12.921 
       0.638161         15.5693         12.6518 
         0.6443         15.2501         12.3885 
       0.650464         14.9546         12.1317 
       0.656582         14.8369         11.8842 
       0.662703         14.5548         11.6436 
       0.668861         14.2825         11.4083 
       0.675024         14.0036         11.1795 
       0.681124         13.7602         10.9593 
       0.687237         13.5436         10.7447 
       0.693381         13.3733          10.535 
       0.699536          13.012         10.3305 
       0.705665          12.895         10.1323 
       0.711789         12.6598         9.93961 
       0.717957         12.4558         9.75063 
        0.72409         12.2502         9.56767 
       0.730186         12.0827         9.39055 
       0.736317         11.9481           9.217 
       0.742472         11.7509         9.04724 
       0.748622         11.5731         8.88195 
        0.75476         11.3383         8.72119 
       0.760888         11.1942          8.5647 
       0.767043         11.0566         8.41146 
       0.773185         10.8344         8.26233 
       0.779291         10.7523         8.11769 
       0.785407         10.5862         7.97635 
       0.791564         10.4138         7.83751 
       0.797719         10.2184         7.70207 
       0.803834         10.1595         7.57072 
       0.809972         10.0524         7.44198 
       0.816124         9.83275         7.31598 
       0.822261         9.69352         7.19327 
       0.828378          9.5776         7.07376 
       0.834502         9.49436         6.95689 
       0.840667         9.32361         6.84193 
       0.846816         9.16363         6.72992 
       0.852925         9.08177         6.62114 
       0.859047         8.96565         6.51456 
       0.865192         8.88272            6.41 
       0.871341          8.7864         6.30768 
       0.877463         8.64133         6.20807 
       0.883569          8.5052         6.11089 
       0.889708         8.36813         6.01531 
       0.895864         8.29787         5.92154 
       0.902008         8.20981         5.82999 
       0.908149          8.1193         5.74044 
       0.914301         8.00667         5.65265 
       0.920448         7.88554         5.56678 
       0.926574         7.79048         5.48302 
       0.932687         7.71469         5.40117 
       0.938823         7.61137         5.32071 
       0.944975         7.51202         5.24172 
       0.951105         7.44057         5.16463 
       0.957225         7.39931         5.08923 
       0.963368         7.29604         5.01509 
       0.969511          7.2109         4.94243 
       0.975621         7.12006         4.87162 
       0.981748         7.04377         4.80202 
       0.987916          6.9772         4.73335 
        0.99406         6.86389         4.66629 
        1.00019         6.76787         4.60068 
        1.00632         6.74343          4.5364 
        1.01246         6.66281         4.47326 
        1.01859         6.56947         4.41143 
        1.02471         6.51213         4.35085 
        1.03085         6.44155         4.29122 
        1.03698         6.35336         4.23283 
        1.04314         6.30723         4.17529 
        1.04929         6.22654         4.11895 
        1.05541         6.15335         4.06389 
        1.06154         6.10356         4.00971 
        1.06769         6.07073         3.95643 
        1.07382         5.97109         3.90431 
        1.07993         5.90979         3.85324 
        1.08607         5.87279         3.80289 
        1.09222         5.80904         3.75339 
        1.09836         5.74843         3.70483 
        1.10449         5.69069          3.6572 
        1.11063         5.63181         3.61036 
        1.11677         5.59155         3.56436 
         1.1229         5.53939         3.51924 
        1.12903         5.47249         3.47487 
        1.13518         5.41561         3.43124 
        1.14131         5.35312         3.38838 
        1.14745          5.2931         3.34629 
        1.15359         5.26376          3.3049 
        1.15973         5.20629         3.26421 
        1.16584          5.1476         3.22438 
        1.17197         5.10494         3.18516 
        1.17811         5.07491         3.14648 
        1.18424          5.0282         3.10856 
        1.19038         4.99453         3.07116 
        1.19652         4.93931         3.03439 
        1.20267         4.88612         2.99822 
        1.20881         4.85728         2.96266 
        1.21495         4.81262         2.92773 
        1.22108         4.76112         2.89337 
         1.2272          4.7331         2.85965 
        1.23334         4.67178         2.82639 
        1.23949         4.62934         2.79359 
        1.24562         4.60614          2.7614 
        1.25174         4.55409         2.72977 
        1.25789         4.52295         2.69854 
        1.26402         4.48547         2.66786 
        1.27014         4.44379         2.63773 
        1.27628         4.40859         2.60798 
        1.28244          4.3557         2.57863 
        1.28858         4.34215         2.54978 
        1.29471         4.29114         2.52144 
        1.30084         4.25033         2.49355 
        1.30697         4.24824         2.46605 
        1.31312          4.1691         2.43892 
        1.31925         4.14969         2.41229 
        1.32537         4.11415         2.38608 
        1.33151         4.09732         2.36017 
        1.33765         4.04315         2.33466 
        1.34378         4.01724         2.30958 
        1.34992          3.9977         2.28486 
        1.35606         3.94463         2.26044 
         1.3622         3.92989         2.23642 
        1.36833          3.8961         2.21282 
        1.37445         3.86507         2.18956 
        1.38059         3.84983         2.16658 
        1.38675         3.82064         2.14386 
        1.39288         3.78598         2.12157 
        1.39901         3.74437          2.0996 
        1.40515           3.721          2.0779 
         1.4113         3.69648         2.05652 
        1.41742         3.67098         2.03551 
        1.42355          3.6401         2.01477 
         1.4297         3.60992         1.99425 
        1.43585         3.59496         1.97402 
        1.44198         3.57376         1.95416 
        1.44809         3.53493         1.93461 
        1.45423         3.50722         1.91525 
        1.46036         3.47855         1.89619 
        1.46649         3.45527         1.87739 
        1.47263         3.42801         1.85883 
        1.47877         3.40015         1.84053 
        1.48491         3.37882         1.82244 
        1.49104         3.35993         1.80464 
        1.49718         3.33583         1.78706 
        1.50333         3.31518         1.76969 
        1.50947         3.28882         1.75259 
         1.5156         3.26561         1.73574 
        1.52172         3.24523         1.71911 
        1.52787         3.22467         1.70267 
          1.534         3.19702         1.68646 
        1.54013         3.18118         1.67048 
        1.54627         3.15086         1.65468 
        1.55241         3.12872         1.63908 
        1.55855         3.11596         1.62371 
        1.56467         3.09505         1.60858 
         1.5708         3.07014         1.59359 
        1.57695         3.04649         1.57878 
        1.58308          3.0243         1.56419 
        1.58922         3.01464         1.54978 
        1.59535         2.99297         1.53555 
         1.6015         2.97061         1.52148 
        1.60764         2.95261          1.5076 
        1.61376         2.93574         1.49393 
        1.61989         2.91437         1.48042 
        1.62604         2.89312         1.46704 
        1.63218         2.88539         1.45384 
        1.63831         2.85906         1.44083 
        1.64444         2.84097         1.42798 
        1.65059         2.82097         1.41525 
        1.65673          2.8093          1.4027 
        1.66285         2.78469         1.39033 
        1.66898         2.77124          1.3781 
        1.67512          2.7487           1.366 
        1.68127         2.73383         1.35404 
         1.6874         2.72545         1.34224 
        1.69353         2.69368         1.33059 
        1.69967         2.68287         1.31906 
        1.70581          2.6733         1.30766 
        1.71193         2.65273         1.29645 
        1.71806         2.64096         1.28534 
        1.72421         2.62356         1.27434 
        1.73035         2.60895         1.26348 
        1.73649         2.59021         1.25275 
        1.74262         2.57427         1.24216 
        1.74876         2.56597         1.23168 
        1.75489         2.54534         1.22134 
        1.76101         2.52671         1.21113 
        1.76715         2.51743         1.20102 
        1.77329         2.50542         1.19101 
        1.77943         2.48049         1.18111 
        1.78557         2.47224         1.17134 
        1.79171         2.46112         1.16168 
        1.79785         2.44196         1.15213 
        1.80399         2.42937         1.14269 
        1.81012         2.41906         1.13336 
        1.81625           2.403         1.12415 
        1.82239         2.38742         1.11502 
        1.82853         2.37004           1.106 
        1.83466         2.36532         1.09709 
        1.84078         2.35064         1.08828 
        1.84692         2.34007         1.07956 
        1.85306         2.32049         1.07092 
         1.8592         2.30716         1.06239 
        1.86533         2.29544         1.05396 
        1.87147         2.28781         1.04561 
        1.87761         2.27222         1.03735 
        1.88375         2.25764         1.02919 
        1.88988         2.24765         1.02112 
        1.89601          2.2343         1.01314 
        1.90215         2.21892         1.00523 
        1.90829         2.20561        0.997416 
        1.91442         2.20009        0.989682 
        1.92056         2.18464        0.982037 
         1.9267         2.17476        0.974465 
        1.93284         2.16676        0.966969 
        1.93897         2.15401        0.959566 
        1.94509          2.1388        0.952257 
        1.95123         2.12619        0.945006 
        1.95737         2.11483        0.937825 
        1.96349         2.10781        0.930737 
        1.96964          2.1002        0.923703 
        1.97578          2.0834        0.916738 
        1.98192         2.07507         0.90986 
        1.98805         2.06422        0.903051 
        1.99419         2.05548        0.896312 
        2.00033         2.04859        0.889639 
        2.00647         2.03259        0.883036 
         2.0126         2.02591        0.876511 
        2.01874         2.00943        0.870042 
        2.02488         2.00423        0.863633 
        2.03101         1.98799          0.8573 
        2.03714         1.98027        0.851037 
        2.04328          1.9723         0.84483 
        2.04941         1.95733         0.83869 
        2.05554          1.9528        0.832616 
        2.06167         1.94259        0.826593 
        2.06781         1.93561        0.820629 
        2.07396         1.92548        0.814716 
        2.08009         1.91486        0.808871 
        2.08622         1.90344         0.80309 
        2.09237         1.89659        0.797354 
        2.09851          1.8864        0.791674 
        2.10464         1.88199        0.786058 
        2.11077         1.86911        0.780503 
        2.11691         1.85999         0.77499 
        2.12305         1.85344         0.76953 
        2.12918         1.84526        0.764136 
        2.13531         1.83553        0.758793 
        2.14145         1.82579        0.753489 
         2.1476         1.81485         0.74823 
        2.15372         1.80731        0.743047 
        2.15985         1.79862        0.737909 
        2.16599          1.7924        0.732804 
        2.17213         1.77943        0.727753 
        2.17827         1.77478        0.722751 
         2.1844         1.76741        0.717801 
        2.19054         1.76055        0.712896 
        2.19666         1.75036        0.708043 
         2.2028          1.7418        0.703231 
        2.20893         1.73461        0.698462 
        2.21508         1.72763        0.693732 
        2.22122         1.71612        0.689045 
        2.22736         1.70893         0.68441 
        2.23349         1.70501        0.679819 
        2.23962         1.69373        0.675268 
        2.24577         1.68868        0.670755 
         2.2519         1.67901         0.66629 
        2.25802         1.67471        0.661872 
        2.26417         1.66682        0.657482 
        2.27031         1.65887        0.653128 
        2.27644           1.652        0.648827 
        2.28257         1.64295        0.644564 
        2.28872         1.63735        0.640332 
        2.29486         1.62911        0.636138 
        2.30099         1.62137        0.631991 
        2.30712         1.61319        0.627879 
        2.31326         1.61004        0.623797 
         2.3194         1.60177        0.619753 
        2.32553         1.59598        0.615752 
        2.33166         1.58679        0.611788 
         2.3378         1.58039        0.607853 
        2.34394         1.57302        0.603952 
        2.35007         1.56622        0.600091 
        2.35619         1.56298        0.596268 
        2.36233           1.553        0.592469 
        2.36848         1.54721        0.588696 
        2.37462         1.54214        0.584963 
        2.38075         1.53419        0.581267 
        2.38689         1.52958        0.577599 
        2.39303         1.52163        0.573964 
        2.39916         1.51539        0.570363 
        2.40529         1.50968        0.566794 
        2.41143         1.50178        0.563253 
        2.41757         1.49649        0.559741 
         2.4237         1.49315        0.556265 
        2.42983         1.48229        0.552819 
        2.43598         1.48127        0.549393 
        2.44211         1.47275        0.546002 
        2.44823         1.46738        0.542647 
        2.45437         1.46132        0.539312 
        2.46052         1.45655        0.536001 
        2.46665         1.45006        0.532725 
        2.47279          1.4432        0.529477 
        2.47892         1.43786        0.526253 
        2.48507         1.43336        0.523054 
         2.4912          1.4247        0.519888 
