# k  (h/Mpc)    P(k)  (Mpc/h)^3    P_linear(k)  (Mpc/h)^3
     0.00783031         15171.9         15409.3 
       0.013688           18850         18698.3 
       0.019231         18688.7         18666.6 
      0.0249154         16706.2         17067.3 
      0.0312784         14516.8         14686.6 
      0.0375637         12516.8         12529.9 
      0.0433917         10786.3         10993.4 
      0.0492413         9807.16         9898.67 
      0.0555754         8764.32         9063.52 
      0.0619321         8371.59         8385.01 
       0.067871         7517.01          7748.8 
      0.0738098          6850.5          7051.1 
      0.0800417         6041.79          6275.1 
      0.0862327         5415.73         5532.63 
      0.0921407         4917.65         4919.46 
      0.0982031         4403.78         4425.61 
       0.104506         4161.37         4056.43 
       0.110769          3878.5         3799.66 
       0.116806         3661.27         3606.93 
       0.122832         3481.43         3423.01 
       0.129052         3206.25         3212.13 
       0.135211         3003.02         2976.08 
       0.141259         2838.93         2731.82 
       0.147318         2650.31         2497.48 
       0.153489         2422.66         2289.98 
       0.159709         2295.17         2123.41 
       0.165845         2216.05          1999.4 
       0.171974         2103.07         1904.92 
       0.178125          2006.2         1824.88 
       0.184229         1920.03         1746.79 
        0.19034         1805.91         1661.87 
       0.196428         1760.53         1569.22 
       0.202534         1686.05          1472.5 
       0.208729         1601.28         1377.52 
       0.214876         1530.44         1292.83 
       0.220989         1477.87          1221.5 
       0.227147         1416.24         1162.63 
        0.23329         1362.23         1113.96 
       0.239377         1339.85         1071.42 
       0.245482         1255.09         1030.45 
       0.251667         1246.47         987.935 
       0.257832         1195.67         943.768 
       0.263955         1154.53          899.15 
       0.270079            1113          855.61 
        0.27624         1099.52         814.856 
       0.282372         1053.71         778.522 
        0.28843         1043.49         746.961 
       0.294538         990.877         718.889 
       0.300721           986.1         693.074 
        0.30691         945.506          668.61 
       0.313033         926.867         644.792 
       0.319153         908.269         621.025 
       0.325316         878.887         597.193 
        0.33145         857.725         574.075 
       0.337538         843.228         552.218 
       0.343633         822.328         531.838 
       0.349808         793.603         512.856 
       0.355968         788.505          495.46 
       0.362074         779.493          479.44 
       0.368217         755.569         464.158 
       0.374374         725.158         449.387 
       0.380519         725.519         434.985 
       0.386598         705.188         421.041 
       0.392688         702.693         407.468 
        0.39888         681.903         394.182 
       0.405048         671.455         381.595 
       0.411186         661.917         369.781 
       0.417313         648.214         358.654 
       0.423458         636.393         348.106 
       0.429607         627.736         338.055 
       0.435692         613.379         328.493 
       0.441815         608.161         319.178 
       0.447964          595.63         310.113 
       0.454126          587.44         301.306 
       0.460267         574.379         292.826 
       0.466387         567.993         284.702 
        0.47254         560.852         276.885 
       0.478662         557.369         269.444 
       0.484765         539.463          262.34 
       0.490885         535.662         255.509 
       0.497035         525.074         248.903 
       0.503198         520.415         242.513 
       0.509342         515.903         236.342 
       0.515458          511.79         230.393 
       0.521598         498.827         224.616 
       0.527764         490.182         219.013 
       0.533884         488.145         213.646 
           0.54         482.014         208.472 
       0.546137         479.189         203.464 
       0.552299         470.939         198.613 
       0.558452         468.364         193.939 
       0.564573         462.059         189.441 
       0.570708         455.627         185.073 
       0.576825         444.147          180.85 
       0.582926         444.425         176.766 
       0.589034         440.398         172.802 
       0.595184         436.562         168.935 
       0.601379         429.942         165.164 
       0.607522         424.076         161.543 
       0.613639          423.05         158.049 
       0.619772         413.555         154.652 
       0.625918         412.096          151.35 
       0.632068         405.773         148.142 
       0.638161         404.278         145.057 
         0.6443         397.322         142.037 
       0.650464         394.708         139.094 
       0.656582         391.888         136.255 
       0.662703         390.541         133.496 
       0.668861         383.763         130.799 
       0.675024         380.482         128.176 
       0.681124          377.56         125.652 
       0.687237         374.068         123.191 
       0.693381         368.909         120.786 
       0.699536         364.404         118.441 
       0.705665         362.419          116.17 
       0.711789         360.571          113.96 
       0.717957          357.46         111.794 
        0.72409         354.914         109.696 
       0.730186          350.39         107.665 
       0.736317         347.247         105.675 
       0.742472         345.596         103.729 
       0.748622         341.837         101.834 
        0.75476         337.789         99.9907 
       0.760888         334.404         98.1964 
       0.767043         334.893         96.4395 
       0.773185         330.903         94.7297 
       0.779291         326.182         93.0714 
       0.785407         325.159         91.4509 
       0.791564          321.12          89.859 
       0.797719          318.86         88.3062 
       0.803834         315.882         86.8002 
       0.809972         315.146         85.3242 
       0.816124         314.337         83.8796 
       0.822261         310.114         82.4726 
       0.828378          307.78         81.1024 
       0.834502         305.342         79.7625 
       0.840667          302.65         78.4445 
       0.846816         301.093         77.1602 
       0.852925         299.073          75.913 
       0.859047         297.035          74.691 
       0.865192         293.504         73.4922 
       0.871341         291.327          72.319 
       0.877463         290.401         71.1771 
       0.883569          288.62         70.0628 
       0.889708         285.682         68.9669 
       0.895864         283.641         67.8919 
       0.902008         281.749         66.8422 
       0.908149         279.665         65.8155 
       0.914301         276.656         64.8089 
       0.920448         275.147         63.8245 
       0.926574         272.082         62.8642 
       0.932687         272.354         61.9257 
       0.938823         269.292         61.0033 
       0.944975         268.538         60.0976 
       0.951105         266.336         59.2137 
       0.957225         264.474         58.3492 
       0.963368         261.133         57.4992 
       0.969511         260.227         56.6661 
       0.975621         258.006         55.8542 
       0.981748         257.641         55.0563 
       0.987916         255.709          54.269 
        0.99406         252.155         53.5002 
        1.00019         251.743         52.7479 
        1.00632         250.286         52.0109 
        1.01246         248.165          51.287 
        1.01859         248.534         50.5781 
        1.02471          244.56         49.8836 
        1.03085         243.007         49.1998 
        1.03698         242.063         48.5304 
        1.04314         239.684         47.8706 
        1.04929         238.185         47.2248 
        1.05541         238.607         46.5935 
        1.06154         234.859         45.9722 
        1.06769         234.473         45.3614 
        1.07382         232.721         44.7638 
        1.07993         231.058         44.1783 
        1.08607         230.491          43.601 
        1.09222         228.587         43.0335 
        1.09836         226.959         42.4768 
        1.10449         224.639         41.9306 
        1.11063         222.848         41.3936 
        1.11677           222.5         40.8662 
         1.1229         220.724         40.3489 
        1.12903         219.652         39.8402 
        1.13518         218.149         39.3399 
        1.14131         216.386         38.8486 
        1.14745         216.343         38.3659 
        1.15359         214.311         37.8915 
        1.15973         212.705         37.4249 
        1.16584         211.266         36.9682 
        1.17197         211.172         36.5186 
        1.17811         208.664         36.0752 
        1.18424         207.574         35.6404 
        1.19038         206.974         35.2115 
        1.19652         205.228         34.7899 
        1.20267         204.898         34.3753 
        1.20881         202.932         33.9675 
        1.21495         201.814         33.5671 
        1.22108         200.542         33.1731 
         1.2272         199.126         32.7865 
        1.23334         198.487         32.4052 
        1.23949         196.876         32.0291 
        1.24562         196.068           31.66 
        1.25174         194.608         31.2974 
        1.25789         193.248         30.9393 
        1.26402         191.705         30.5876 
        1.27014         190.536         30.2421 
        1.27628         189.747         29.9011 
        1.28244         189.628         29.5646 
        1.28858         187.471         29.2338 
        1.29471         186.147         28.9088 
        1.30084         185.485         28.5891 
        1.30697         183.968         28.2738 
        1.31312         182.657         27.9628 
        1.31925         181.971         27.6574 
        1.32537         181.283          27.357 
        1.33151         179.446         27.0599 
        1.33765         178.404         26.7674 
        1.34378         177.782         26.4799 
        1.34992         176.919         26.1964 
        1.35606         176.824         25.9164 
         1.3622         174.964         25.6411 
        1.36833         173.295         25.3704 
        1.37445         172.693         25.1038 
        1.38059         171.366         24.8403 
        1.38675         170.823         24.5799 
        1.39288         169.825         24.3242 
        1.39901         169.475         24.0724 
        1.40515         167.622         23.8236 
         1.4113           166.8         23.5784 
        1.41742         165.626         23.3376 
        1.42355         164.861         23.0997 
         1.4297         163.715         22.8645 
        1.43585         162.939         22.6326 
        1.44198         162.074         22.4048 
        1.44809          161.37         22.1807 
        1.45423         160.488         21.9587 
        1.46036         159.336         21.7403 
        1.46649          158.22         21.5247 
        1.47263         157.267         21.3119 
        1.47877         156.474          21.102 
        1.48491          154.98         20.8947 
        1.49104         154.957         20.6906 
        1.49718         153.385          20.489 
        1.50333         152.784         20.2899 
        1.50947         152.074         20.0938 
         1.5156         151.032         19.9006 
        1.52172         150.264         19.7099 
        1.52787         148.988         19.5214 
          1.534         148.625         19.3356 
        1.54013         147.643         19.1524 
        1.54627         146.817         18.9712 
        1.55241         145.846         18.7924 
        1.55855         145.043         18.6162 
        1.56467         144.048         18.4427 
         1.5708         143.294         18.2709 
        1.57695         142.771         18.1011 
        1.58308         141.992         17.9338 
        1.58922         141.276         17.7685 
        1.59535         140.095         17.6054 
         1.6015          139.72         17.4441 
        1.60764         138.843          17.285 
        1.61376         137.937         17.1282 
        1.61989          137.16         16.9733 
        1.62604         136.163         16.8199 
        1.63218         135.855         16.6686 
        1.63831         134.798         16.5195 
        1.64444          134.25         16.3721 
        1.65059         133.543         16.2262 
        1.65673         132.383         16.0822 
        1.66285         132.051         15.9404 
        1.66898          131.08         15.8002 
        1.67512         130.816         15.6615 
        1.68127         129.642         15.5243 
         1.6874         128.704         15.3891 
        1.69353         128.437         15.2555 
        1.69967         127.583         15.1233 
        1.70581         126.854         14.9926 
        1.71193         126.093          14.864 
        1.71806         125.585         14.7367 
        1.72421         124.798         14.6106 
        1.73035         124.619         14.4861 
        1.73649         123.682         14.3631 
        1.74262         122.766         14.2416 
        1.74876         122.357         14.1214 
        1.75489         121.428         14.0029 
        1.76101         120.637         13.8858 
        1.76715         120.232         13.7699 
        1.77329         119.882         13.6552 
        1.77943         118.815         13.5417 
        1.78557           118.4         13.4297 
        1.79171         117.556         13.3189 
        1.79785         116.906         13.2094 
        1.80399         116.204         13.1011 
        1.81012         115.699         12.9942 
        1.81625         115.121         12.8886 
        1.82239         114.675         12.7839 
        1.82853         113.835         12.6805 
        1.83466         113.136         12.5783 
        1.84078         112.734         12.4774 
        1.84692         111.766         12.3774 
        1.85306         111.563         12.2783 
         1.8592          110.78         12.1805 
        1.86533         109.954         12.0839 
        1.87147         109.487         11.9882 
        1.87761         108.817         11.8934 
        1.88375         108.081         11.7998 
        1.88988           107.7         11.7074 
        1.89601         107.036         11.6158 
        1.90215         106.502         11.5252 
        1.90829         105.953         11.4356 
        1.91442         105.413         11.3469 
        1.92056         104.687         11.2592 
         1.9267         104.431         11.1724 
        1.93284         103.791         11.0865 
        1.93897         103.131         11.0016 
        1.94509          102.69         10.9178 
        1.95123         102.114         10.8347 
        1.95737         101.616         10.7523 
        1.96349         101.031         10.6711 
        1.96964         100.153         10.5904 
        1.97578         99.6983         10.5106 
        1.98192         99.5269         10.4317 
        1.98805         98.6765         10.3536 
        1.99419         98.4069         10.2764 
        2.00033         97.6925         10.1999 
        2.00647         97.3756         10.1242 
         2.0126         96.6734         10.0494 
        2.01874         96.0884         9.97519 
        2.02488         95.7389         9.90171 
        2.03101         95.0009         9.82911 
        2.03714         94.4667          9.7573 
        2.04328         94.1501         9.68613 
        2.04941         93.5899         9.61573 
        2.05554         93.0354         9.54609 
        2.06167         92.6739         9.47704 
        2.06781         92.0095         9.40866 
        2.07396          91.614         9.34086 
        2.08009         91.2854         9.27385 
        2.08622         90.6392         9.20757 
        2.09237         90.1645         9.14181 
        2.09851         89.7313         9.07668 
        2.10464         89.2993         9.01229 
        2.11077         88.8898         8.94861 
        2.11691         88.4991          8.8854 
        2.12305         87.7516          8.8228 
        2.12918         87.2639         8.76096 
        2.13531         86.9943          8.6997 
        2.14145         86.2299         8.63889 
         2.1476         85.8016         8.57859 
        2.15372         85.5564         8.51917 
        2.15985         85.1241         8.46025 
        2.16599         84.5468         8.40172 
        2.17213         84.1341         8.34382 
        2.17827         83.7409         8.28647 
         2.1844         83.1955         8.22971 
        2.19054         82.9775         8.17347 
        2.19666         82.4775         8.11784 
         2.2028         82.0713         8.06267 
        2.20893         81.5996         8.00799 
        2.21508         81.1602         7.95376 
        2.22122         80.7283         7.90001 
        2.22736          80.357         7.84688 
        2.23349         79.9689         7.79424 
        2.23962         79.5592         7.74207 
        2.24577         79.1831         7.69032 
         2.2519          78.814         7.63913 
        2.25802         78.2583         7.58848 
        2.26417         77.8778         7.53815 
        2.27031         77.5439         7.48823 
        2.27644         77.0357         7.43891 
        2.28257         76.5956         7.39004 
        2.28872         76.3654         7.34151 
        2.29486         75.7648         7.29343 
        2.30099         75.3743         7.24588 
        2.30712         75.1493         7.19874 
        2.31326         74.7346         7.15193 
         2.3194         74.3032         7.10557 
        2.32553         73.9616          7.0597 
        2.33166         73.6151         7.01425 
         2.3378         73.0615         6.96914 
        2.34394         72.7355         6.92441 
        2.35007          72.402         6.88014 
        2.35619         72.0741         6.83631 
        2.36233         71.6575         6.79276 
        2.36848         71.2795         6.74949 
        2.37462         70.8045          6.7067 
        2.38075         70.6414         6.66432 
        2.38689           70.17         6.62227 
        2.39303         69.7637         6.58059 
        2.39916         69.4503         6.53931 
        2.40529         69.2563         6.49839 
        2.41143         68.7212         6.45779 
        2.41757         68.4924         6.41752 
         2.4237         68.1716         6.37767 
        2.42983         67.7315         6.33816 
        2.43598         67.3992         6.29888 
        2.44211         67.1591            6.26 
        2.44823         66.7581         6.22154 
        2.45437         66.2607         6.18329 
        2.46052          66.024         6.14534 
        2.46665          65.785         6.10777 
        2.47279         65.3613         6.07053 
        2.47892         65.0791         6.03358 
        2.48507         64.6545          5.9969 
         2.4912         64.3886         5.96059 
