# k  (h/Mpc)    P(k)  (Mpc/h)^3    P_linear(k)  (Mpc/h)^3
     0.00783031         217.124         225.505 
       0.013688           265.5         274.144 
       0.019231          266.27         273.914 
      0.0249154         243.201         250.573 
      0.0312784         210.134         215.696 
      0.0375637           179.7         184.064 
      0.0433917         157.465         161.516 
      0.0492413         141.938         145.447 
      0.0555754         129.625         133.187 
      0.0619321         120.364         123.225 
       0.067871         110.844          113.88 
      0.0738098         100.864         103.631 
      0.0800417         89.7019         92.2288 
      0.0862327           79.27         81.3186 
      0.0921407         70.5525         72.3077 
      0.0982031         63.4109         65.0503 
       0.104506         58.3166         59.6248 
       0.110769         54.5706         55.8514 
       0.116806         51.6334          53.019 
       0.122832          49.096         50.3159 
       0.129052         45.9583         47.2166 
       0.135211         42.5774         43.7471 
       0.141259         39.1883          40.157 
       0.147318         35.9214         36.7125 
       0.153489         32.8931         33.6625 
       0.159709         30.5086         31.2141 
       0.165845         28.8382         29.3913 
       0.171974         27.3446         28.0025 
       0.178125         26.2157         26.8261 
       0.184229          25.129         25.6782 
        0.19034         23.8089         24.4299 
       0.196428         22.5521          23.068 
       0.202534         21.2593         21.6462 
       0.208729         19.8446         20.2501 
       0.214876         18.5894         19.0051 
       0.220989         17.6535         17.9566 
       0.227147         16.7219         17.0912 
        0.23329         16.0225         16.3757 
       0.239377         15.4265         15.7505 
       0.245482         14.8003         15.1482 
       0.251667         14.2549         14.5232 
       0.257832         13.5983         13.8739 
       0.263955         12.9762          13.218 
       0.270079         12.3591          12.578 
        0.27624         11.8175         11.9789 
       0.282372         11.2956         11.4448 
        0.28843         10.8076         10.9808 
       0.294538         10.4052         10.5682 
       0.300721         10.0706         10.1887 
        0.30691         9.67625         9.82903 
       0.313033         9.34189          9.4789 
       0.319153         8.94833          9.1295 
       0.325316         8.68537         8.77916 
        0.33145         8.34324         8.43933 
       0.337538         8.02678         8.11802 
       0.343633         7.71805         7.81842 
       0.349808         7.46431         7.53938 
       0.355968         7.21563         7.28364 
       0.362074         6.97598         7.04815 
       0.368217         6.75982         6.82348 
       0.374374         6.52615         6.60634 
       0.380519         6.33914         6.39463 
       0.386598         6.14882         6.18963 
       0.392688         5.96618         5.99011 
        0.39888          5.7655          5.7948 
       0.405048         5.58875         5.60977 
       0.411186         5.42331         5.43609 
       0.417313         5.25007         5.27252 
       0.423458         5.10923         5.11744 
       0.429607         4.95099          4.9697 
       0.435692          4.8125         4.82912 
       0.441815         4.68189         4.69218 
       0.447964         4.56899         4.55892 
       0.454126         4.42244         4.42946 
       0.460267         4.30242         4.30479 
       0.466387         4.17674         4.18536 
        0.47254         4.07205         4.07045 
       0.478662         3.97129         3.96106 
       0.484765         3.85888         3.85663 
       0.490885         3.76313          3.7562 
       0.497035         3.68878          3.6591 
       0.503198         3.58493         3.56516 
       0.509342         3.50042         3.47444 
       0.515458         3.40829         3.38698 
       0.521598         3.32713         3.30206 
       0.527764         3.23736         3.21969 
       0.533884         3.17453         3.14079 
           0.54         3.09501         3.06473 
       0.546137         3.02634          2.9911 
       0.552299         2.95576          2.9198 
       0.558452         2.87864         2.85107 
       0.564573         2.82138         2.78495 
       0.570708         2.75761         2.72075 
       0.576825         2.69087         2.65867 
       0.582926         2.63939         2.59862 
       0.589034         2.56674         2.54035 
       0.595184         2.51587          2.4835 
       0.601379         2.46075         2.42806 
       0.607522         2.41585         2.37483 
       0.613639         2.37273         2.32347 
       0.619772         2.31052         2.27353 
       0.625918         2.26847         2.22498 
       0.632068         2.22745         2.17783 
       0.638161         2.17616         2.13247 
         0.6443         2.13159         2.08808 
       0.650464          2.0834         2.04481 
       0.656582         2.04917         2.00308 
       0.662703         2.00914         1.96252 
       0.668861         1.97587         1.92287 
       0.675024         1.93216         1.88431 
       0.681124         1.89057          1.8472 
       0.687237         1.86139         1.81103 
       0.693381         1.82701         1.77567 
       0.699536         1.78198          1.7412 
       0.705665         1.75169         1.70781 
       0.711789         1.72328         1.67532 
       0.717957         1.68813         1.64347 
        0.72409         1.65893         1.61263 
       0.730186         1.62764         1.58278 
       0.736317         1.60735         1.55353 
       0.742472         1.57689         1.52491 
       0.748622         1.54594         1.49706 
        0.75476          1.5156         1.46996 
       0.760888         1.48908         1.44358 
       0.767043         1.47201         1.41775 
       0.773185         1.44072         1.39262 
       0.779291         1.41791         1.36824 
       0.785407         1.39422         1.34442 
       0.791564         1.37213         1.32101 
       0.797719         1.35157         1.29819 
       0.803834         1.33018         1.27605 
       0.809972         1.30701         1.25435 
       0.816124         1.28371         1.23311 
       0.822261         1.26086         1.21243 
       0.828378         1.24377         1.19228 
       0.834502         1.22719         1.17259 
       0.840667         1.20155         1.15321 
       0.846816         1.18348         1.13433 
       0.852925         1.17032           1.116 
       0.859047         1.15164         1.09803 
       0.865192         1.13165         1.08041 
       0.871341         1.11495         1.06316 
       0.877463          1.1016         1.04637 
       0.883569         1.08157         1.02999 
       0.889708         1.06517         1.01388 
       0.895864         1.04966        0.998077 
       0.902008         1.03235        0.982646 
       0.908149          1.0182        0.967553 
       0.914301        0.998703        0.952755 
       0.920448        0.986511        0.938283 
       0.926574        0.971648        0.924165 
       0.932687        0.957567        0.910369 
       0.938823        0.948164        0.896808 
       0.944975        0.933412        0.883494 
       0.951105        0.921191          0.8705 
       0.957225        0.910588        0.857791 
       0.963368        0.896642        0.845294 
       0.969511         0.88254        0.833048 
       0.975621        0.868808        0.821112 
       0.981748        0.860883        0.809381 
       0.987916        0.847815        0.797808 
        0.99406         0.83499        0.786505 
        1.00019        0.826634        0.775446 
        1.00632        0.812202        0.764611 
        1.01246        0.801769        0.753969 
        1.01859        0.792871        0.743548 
        1.02471        0.781336        0.733338 
        1.03085        0.774001        0.723286 
        1.03698        0.761685        0.713444 
        1.04314        0.752914        0.703746 
        1.04929        0.741765        0.694251 
        1.05541        0.734148         0.68497 
        1.06154        0.723375        0.675837 
        1.06769        0.713695        0.666858 
        1.07382        0.705682        0.658072 
        1.07993        0.695016        0.649465 
        1.08607        0.689955        0.640978 
        1.09222        0.679224        0.632635 
        1.09836        0.673728        0.624451 
        1.10449        0.664976        0.616422 
        1.11063        0.654785        0.608527 
        1.11677        0.645831        0.600773 
         1.1229        0.639476        0.593169 
        1.12903        0.630932        0.585691 
        1.13518        0.625039        0.578337 
        1.14131        0.616458        0.571113 
        1.14745        0.606118        0.564018 
        1.15359        0.601712        0.557043 
        1.15973        0.592662        0.550183 
        1.16584        0.589127         0.54347 
        1.17197        0.581305        0.536861 
        1.17811        0.575281        0.530341 
        1.18424        0.570108        0.523949 
        1.19038        0.561812        0.517645 
        1.19652        0.554035        0.511447 
        1.20267        0.550257        0.505351 
        1.20881        0.542598        0.499357 
        1.21495        0.538172         0.49347 
        1.22108        0.531721        0.487679 
         1.2272        0.526619        0.481995 
        1.23334        0.519989        0.476389 
        1.23949         0.51431         0.47086 
        1.24562        0.508953        0.465434 
        1.25174        0.503821        0.460103 
        1.25789        0.498909        0.454839 
        1.26402        0.491782        0.449668 
        1.27014        0.487061         0.44459 
        1.27628        0.483327        0.439576 
        1.28244        0.475866         0.43463 
        1.28858        0.471822        0.429767 
        1.29471        0.468114        0.424989 
        1.30084        0.462063        0.420289 
        1.30697        0.457236        0.415654 
        1.31312        0.450862        0.411081 
        1.31925        0.447318        0.406592 
        1.32537        0.443532        0.402175 
        1.33151        0.439725        0.397808 
        1.33765        0.434857        0.393508 
        1.34378        0.429131        0.389281 
        1.34992        0.425865        0.385113 
        1.35606        0.421179        0.380998 
         1.3622        0.417057         0.37695 
        1.36833        0.412808        0.372971 
        1.37445        0.407566        0.369052 
        1.38059        0.403984        0.365177 
        1.38675        0.402351        0.361349 
        1.39288        0.397096        0.357591 
        1.39901        0.393484        0.353889 
        1.40515        0.389943        0.350231 
         1.4113        0.385266        0.346626 
        1.41742        0.381729        0.343087 
        1.42355        0.379481         0.33959 
         1.4297         0.37445        0.336131 
        1.43585         0.37127        0.332722 
        1.44198        0.369068        0.329374 
        1.44809        0.364427        0.326079 
        1.45423         0.36111        0.322816 
        1.46036        0.357749        0.319604 
        1.46649        0.355033        0.316435 
        1.47263        0.351208        0.313306 
        1.47877        0.347297        0.310221 
        1.48491        0.344696        0.307173 
        1.49104        0.340754        0.304173 
        1.49718        0.338076         0.30121 
        1.50333        0.335697        0.298282 
        1.50947        0.332402        0.295399 
         1.5156        0.328931        0.292559 
        1.52172        0.326427        0.289756 
        1.52787        0.323239        0.286985 
          1.534         0.32044        0.284253 
        1.54013        0.317181         0.28156 
        1.54627        0.315069        0.278897 
        1.55241        0.311712        0.276268 
        1.55855        0.308589        0.273677 
        1.56467        0.307528        0.271126 
         1.5708        0.303883        0.268601 
        1.57695        0.301434        0.266104 
        1.58308        0.298643        0.263645 
        1.58922        0.296367        0.261216 
        1.59535        0.293563        0.258818 
         1.6015        0.290998        0.256447 
        1.60764        0.288894        0.254107 
        1.61376         0.28557        0.251802 
        1.61989        0.283751        0.249525 
        1.62604         0.28146        0.247271 
        1.63218        0.279395        0.245046 
        1.63831        0.277096        0.242853 
        1.64444        0.274617        0.240687 
        1.65059        0.272368        0.238542 
        1.65673        0.270088        0.236425 
        1.66285        0.268236         0.23434 
        1.66898        0.266117         0.23228 
        1.67512        0.263302        0.230241 
        1.68127        0.261017        0.228224 
         1.6874        0.259748        0.226236 
        1.69353        0.257018        0.224272 
        1.69967        0.255501        0.222328 
        1.70581        0.252887        0.220407 
        1.71193        0.251113        0.218517 
        1.71806         0.24877        0.216645 
        1.72421        0.247407        0.214791 
        1.73035        0.244927         0.21296 
        1.73649        0.243488        0.211152 
        1.74262        0.241422        0.209366 
        1.74876        0.239362          0.2076 
        1.75489        0.237808        0.205858 
        1.76101        0.235552        0.204136 
        1.76715        0.233788        0.202432 
        1.77329        0.231789        0.200745 
        1.77943         0.23009        0.199077 
        1.78557        0.228786        0.197431 
        1.79171        0.227013        0.195802 
        1.79785        0.225109        0.194192 
        1.80399        0.223393          0.1926 
        1.81012        0.221883        0.191029 
        1.81625        0.220125        0.189475 
        1.82239        0.218653        0.187937 
        1.82853        0.216505        0.186417 
        1.83466        0.215183        0.184914 
        1.84078        0.213477         0.18343 
        1.84692        0.211886         0.18196 
        1.85306        0.210714        0.180505 
         1.8592        0.208799        0.179067 
        1.86533        0.207684        0.177646 
        1.87147        0.206008        0.176239 
        1.87761        0.204744        0.174846 
        1.88375        0.202798         0.17347 
        1.88988         0.20152        0.172111 
        1.89601        0.199827        0.170765 
        1.90215        0.198711        0.169432 
        1.90829        0.196975        0.168115 
        1.91442        0.196052        0.166811 
        1.92056          0.1943        0.165523 
         1.9267        0.192821        0.164247 
        1.93284        0.191482        0.162983 
        1.93897        0.190122        0.161735 
        1.94509        0.189181        0.160503 
        1.95123        0.187545        0.159281 
        1.95737        0.186584        0.158071 
        1.96349        0.185041        0.156876 
        1.96964        0.183638        0.155691 
        1.97578        0.182337        0.154517 
        1.98192         0.18135        0.153357 
        1.98805        0.180356         0.15221 
        1.99419        0.178655        0.151074 
        2.00033        0.177409        0.149949 
        2.00647        0.176758        0.148836 
         2.0126        0.175073        0.147736 
        2.01874        0.174171        0.146646 
        2.02488        0.172924        0.145566 
        2.03101        0.171728        0.144498 
        2.03714        0.170493        0.143443 
        2.04328        0.169612        0.142397 
        2.04941        0.168241        0.141362 
        2.05554        0.167344        0.140338 
        2.06167        0.166401        0.139323 
        2.06781         0.16488        0.138317 
        2.07396        0.163847        0.137321 
        2.08009        0.162798        0.136336 
        2.08622        0.161953        0.135361 
        2.09237        0.160982        0.134395 
        2.09851        0.159954        0.133437 
        2.10464        0.158862         0.13249 
        2.11077         0.15768        0.131554 
        2.11691        0.156752        0.130625 
        2.12305        0.155762        0.129705 
        2.12918        0.154877        0.128796 
        2.13531        0.153675        0.127895 
        2.14145        0.152638        0.127001 
         2.1476        0.151855        0.126115 
        2.15372        0.151129        0.125241 
        2.15985        0.149879        0.124375 
        2.16599        0.148837        0.123515 
        2.17213        0.148134        0.122663 
        2.17827         0.14706         0.12182 
         2.1844        0.146376        0.120986 
        2.19054        0.145371        0.120159 
        2.19666        0.144121        0.119341 
         2.2028        0.143627         0.11853 
        2.20893        0.142927        0.117726 
        2.21508        0.141627        0.116929 
        2.22122        0.140773        0.116139 
        2.22736        0.140262        0.115358 
        2.23349        0.139179        0.114584 
        2.23962        0.138532        0.113817 
        2.24577        0.137482        0.113056 
         2.2519        0.136886        0.112304 
        2.25802         0.13584        0.111559 
        2.26417        0.135192        0.110819 
        2.27031        0.134294        0.110085 
        2.27644        0.133539         0.10936 
        2.28257         0.13275        0.108642 
        2.28872        0.131967        0.107928 
        2.29486        0.131316        0.107222 
        2.30099         0.13039        0.106522 
        2.30712         0.12971        0.105829 
        2.31326        0.128647        0.105141 
         2.3194         0.12857         0.10446 
        2.32553        0.127663        0.103785 
        2.33166        0.127012        0.103117 
         2.3378        0.126145        0.102454 
        2.34394        0.125296        0.101797 
        2.35007        0.124616        0.101146 
        2.35619        0.123765        0.100501 
        2.36233        0.123113       0.0998611 
        2.36848        0.122631       0.0992251 
        2.37462        0.121652       0.0985959 
        2.38075        0.121305       0.0979729 
        2.38689        0.120483       0.0973547 
        2.39303        0.120078       0.0967419 
        2.39916        0.118994       0.0961351 
        2.40529        0.118535       0.0955335 
        2.41143        0.117835       0.0949367 
        2.41757        0.117128       0.0943447 
         2.4237        0.116693       0.0937588 
        2.42983        0.115855        0.093178 
        2.43598        0.115511       0.0926006 
        2.44211        0.114661        0.092029 
        2.44823         0.11431       0.0914636 
        2.45437          0.1133       0.0909014 
        2.46052        0.112903       0.0903434 
        2.46665        0.112174       0.0897911 
        2.47279        0.111536       0.0892436 
        2.47892         0.11085       0.0887004 
        2.48507        0.110225       0.0881611 
         2.4912         0.10981       0.0876274 
