# k  (h/Mpc)    P(k)  (Mpc/h)^3    P_linear(k)  (Mpc/h)^3
     0.00783031         12592.9         12792.8 
       0.013688         15624.8         15524.8 
       0.019231         15512.4         15499.2 
      0.0249154           13900         14171.8 
      0.0312784         12074.4         12195.3 
      0.0375637         10401.8         10404.7 
      0.0433917         8980.44         9128.91 
      0.0492413          8158.1         8219.88 
      0.0555754         7309.58         7526.42 
      0.0619321         6964.45         6963.03 
       0.067871         6269.95         6434.73 
      0.0738098         5711.57         5855.38 
      0.0800417         5041.02         5210.98 
      0.0862327         4511.28         4594.43 
      0.0921407         4085.31         4085.25 
      0.0982031         3656.88         3675.15 
       0.104506         3447.73         3368.58 
       0.110769         3214.25         3155.36 
       0.116806          3030.8         2995.31 
       0.122832         2885.28         2842.58 
       0.129052         2660.23         2667.46 
       0.135211         2488.68         2471.43 
       0.141259         2345.36          2268.6 
       0.147318         2184.12            2074 
       0.153489         1995.49         1901.68 
       0.159709         1887.33         1763.36 
       0.165845         1817.55         1660.38 
       0.171974         1722.78         1581.91 
       0.178125            1645         1515.45 
       0.184229         1576.94          1450.6 
        0.19034         1476.98         1380.08 
       0.196428         1439.56         1303.14 
       0.202534         1379.38         1222.82 
       0.208729         1305.98         1143.95 
       0.214876         1242.06         1073.62 
       0.220989         1199.58         1014.38 
       0.227147         1145.84         965.492 
        0.23329         1101.97         925.072 
       0.239377         1081.77         889.753 
       0.245482         1011.75         855.729 
       0.251667         1003.41         820.421 
       0.257832         963.164         783.743 
       0.263955         929.493          746.69 
       0.270079         894.727         710.533 
        0.27624         883.306         676.689 
       0.282372         846.317         646.516 
        0.28843         832.843         620.307 
       0.294538         790.937         596.995 
       0.300721         787.348         575.557 
        0.30691         752.866         555.241 
       0.313033         738.065         535.462 
       0.319153         719.759         515.724 
       0.325316         697.128         495.933 
        0.33145         678.542         476.736 
       0.337538         668.244         458.585 
       0.343633          649.02          441.66 
       0.349808         626.353         425.897 
       0.355968         622.083          411.45 
       0.362074         612.826         398.147 
       0.368217         595.019         385.456 
       0.374374         569.979         373.189 
       0.380519         568.442          361.23 
       0.386598         553.368          349.65 
       0.392688         550.804         338.379 
        0.39888         534.532         327.345 
       0.405048         524.508         316.893 
       0.411186         516.211         307.082 
       0.417313         505.958         297.842 
       0.423458          496.71         289.082 
       0.429607         488.531         280.735 
       0.435692         476.883         272.794 
       0.441815         472.952         265.059 
       0.447964          463.09         257.531 
       0.454126         453.069         250.217 
       0.460267          445.02         243.175 
       0.466387         440.029         236.428 
        0.47254         431.976         229.937 
       0.478662         430.643         223.758 
       0.484765         416.327         217.859 
       0.490885         412.675         212.185 
       0.497035         405.042           206.7 
       0.503198         399.542         201.393 
       0.509342         396.437         196.268 
       0.515458         392.399         191.328 
       0.521598         383.139         186.531 
       0.527764         376.562         181.878 
       0.533884          374.34         177.421 
           0.54         369.113         173.124 
       0.546137          367.49         168.965 
       0.552299         360.026         164.937 
       0.558452         358.189         161.055 
       0.564573         352.905         157.319 
       0.570708         346.867         153.693 
       0.576825         339.834         150.186 
       0.582926         338.172         146.794 
       0.589034         335.087         143.502 
       0.595184         332.002         140.291 
       0.601379         327.544         137.159 
       0.607522         322.593         134.152 
       0.613639         321.094         131.251 
       0.619772         313.646          128.43 
       0.625918         312.707         125.687 
       0.632068         307.781         123.024 
       0.638161         306.579         120.461 
         0.6443         301.299         117.954 
       0.650464         298.706         115.509 
       0.656582         296.786         113.152 
       0.662703         295.378         110.861 
       0.668861          290.03         108.621 
       0.675024         287.015         106.443 
       0.681124          285.32         104.347 
       0.687237         282.216         102.303 
       0.693381         278.063         100.306 
       0.699536         275.525         98.3589 
       0.705665         273.355         96.4723 
       0.711789         271.235         94.6374 
       0.717957         269.398         92.8381 
        0.72409          266.68          91.096 
       0.730186         263.757         89.4097 
       0.736317          260.93         87.7572 
       0.742472         259.647         86.1409 
       0.748622         257.176         84.5672 
        0.75476         254.765         83.0365 
       0.760888         251.759         81.5465 
       0.767043         251.912         80.0875 
       0.773185         248.765         78.6676 
       0.779291         244.459         77.2905 
       0.785407         243.922         75.9447 
       0.791564         241.231         74.6227 
       0.797719         238.753         73.3332 
       0.803834         237.204         72.0825 
       0.809972         236.011         70.8568 
       0.816124         235.689         69.6572 
       0.822261         232.397         68.4888 
       0.828378         230.414         67.3509 
       0.834502         229.638         66.2382 
       0.840667         226.639         65.1436 
       0.846816          225.07         64.0771 
       0.852925         224.055         63.0414 
       0.859047         222.111         62.0266 
       0.865192          219.71          61.031 
       0.871341         217.983         60.0568 
       0.877463         216.576         59.1085 
       0.883569         215.804         58.1831 
       0.889708         213.463         57.2731 
       0.895864         211.091         56.3803 
       0.902008         210.259         55.5086 
       0.908149         209.408          54.656 
       0.914301         206.617         53.8201 
       0.920448         205.312         53.0026 
       0.926574         203.913         52.2051 
       0.932687         203.902         51.4258 
       0.938823         201.373         50.6597 
       0.944975         199.978         49.9076 
       0.951105         198.986         49.1736 
       0.957225         197.233         48.4557 
       0.963368         194.803         47.7497 
       0.969511         194.111          47.058 
       0.975621         192.395         46.3837 
       0.981748         192.465         45.7211 
       0.987916         190.406         45.0673 
        0.99406         188.494         44.4288 
        1.00019         188.491         43.8041 
        1.00632         186.766          43.192 
        1.01246         185.437         42.5909 
        1.01859         184.999         42.0022 
        1.02471         182.784         41.4254 
        1.03085         180.983         40.8576 
        1.03698         180.274         40.3017 
        1.04314         178.699         39.7538 
        1.04929         177.661         39.2174 
        1.05541         177.505         38.6932 
        1.06154         175.632         38.1773 
        1.06769         175.471           37.67 
        1.07382         173.888         37.1738 
        1.07993          172.39         36.6876 
        1.08607          171.73         36.2081 
        1.09222         170.881         35.7368 
        1.09836         169.402         35.2745 
        1.10449         167.712          34.821 
        1.11063         166.347          34.375 
        1.11677         166.146          33.937 
         1.1229         164.745         33.5075 
        1.12903         163.958          33.085 
        1.13518         163.194         32.6696 
        1.14131         161.613         32.2615 
        1.14745         161.357         31.8607 
        1.15359         160.106         31.4667 
        1.15973         159.297         31.0792 
        1.16584         157.697            30.7 
        1.17197         157.225         30.3266 
        1.17811         156.206         29.9583 
        1.18424         155.398         29.5973 
        1.19038         154.943         29.2411 
        1.19652         153.631          28.891 
        1.20267         153.043         28.5467 
        1.20881         151.614         28.2081 
        1.21495         151.021         27.8755 
        1.22108         150.143         27.5484 
         1.2272         148.837         27.2273 
        1.23334         148.346         26.9107 
        1.23949          147.25         26.5983 
        1.24562         146.524         26.2918 
        1.25174         145.143         25.9907 
        1.25789          144.44         25.6933 
        1.26402         143.487         25.4012 
        1.27014         142.563         25.1144 
        1.27628         142.062         24.8311 
        1.28244         141.632         24.5517 
        1.28858         140.677          24.277 
        1.29471         139.202         24.0071 
        1.30084         138.917         23.7416 
        1.30697         137.804         23.4798 
        1.31312         137.273         23.2215 
        1.31925         136.314         22.9679 
        1.32537         135.673         22.7184 
        1.33151         134.407         22.4717 
        1.33765         133.983         22.2288 
        1.34378         133.246           21.99 
        1.34992          132.83         21.7546 
        1.35606         132.257         21.5221 
         1.3622         131.037         21.2935 
        1.36833         130.125         21.0687 
        1.37445         129.464         20.8473 
        1.38059         128.866         20.6284 
        1.38675         128.106         20.4122 
        1.39288         127.654         20.1999 
        1.39901         127.206         19.9908 
        1.40515         126.038         19.7841 
         1.4113         125.156         19.5805 
        1.41742          124.62         19.3805 
        1.42355         123.848          19.183 
         1.4297         123.273         18.9876 
        1.43585         122.212         18.7951 
        1.44198         121.956         18.6059 
        1.44809         121.193         18.4198 
        1.45423         120.491         18.2355 
        1.46036         119.943          18.054 
        1.46649         119.039          17.875 
        1.47263         118.468         17.6983 
        1.47877         118.067          17.524 
        1.48491         116.802         17.3518 
        1.49104         116.742         17.1823 
        1.49718         115.675          17.015 
        1.50333         115.267         16.8496 
        1.50947          114.77         16.6867 
         1.5156         113.941         16.5263 
        1.52172         113.252          16.368 
        1.52787         112.712         16.2114 
          1.534          112.08         16.0571 
        1.54013         111.415          15.905 
        1.54627          110.99         15.7545 
        1.55241         110.116          15.606 
        1.55855         109.552         15.4597 
        1.56467         109.282         15.3156 
         1.5708         108.379         15.1729 
        1.57695         108.166         15.0319 
        1.58308         107.341          14.893 
        1.58922          107.05         14.7557 
        1.59535         106.272         14.6203 
         1.6015         105.782         14.4864 
        1.60764         105.193         14.3542 
        1.61376         104.926          14.224 
        1.61989         104.032         14.0953 
        1.62604         103.687          13.968 
        1.63218         103.166         13.8423 
        1.63831          102.28         13.7185 
        1.64444         102.026         13.5961 
        1.65059         101.485         13.4749 
        1.65673         100.535         13.3554 
        1.66285         100.375         13.2376 
        1.66898         99.8534         13.1212 
        1.67512          99.299          13.006 
        1.68127         98.7281         12.8921 
         1.6874         97.9845         12.7798 
        1.69353         97.5601         12.6689 
        1.69967          97.219          12.559 
        1.70581         96.6733         12.4505 
        1.71193         96.3153         12.3437 
        1.71806         95.7084          12.238 
        1.72421         95.0132         12.1332 
        1.73035         94.7354         12.0299 
        1.73649         94.1305         11.9277 
        1.74262         93.5526         11.8268 
        1.74876         93.2839         11.7271 
        1.75489         92.4982         11.6286 
        1.76101         92.1375         11.5314 
        1.76715         91.5241         11.4351 
        1.77329         91.2888         11.3398 
        1.77943         90.4958         11.2456 
        1.78557         90.3544         11.1526 
        1.79171         89.5914         11.0606 
        1.79785         89.2048         10.9697 
        1.80399         88.7676         10.8797 
        1.81012         88.4222          10.791 
        1.81625         87.8714         10.7032 
        1.82239         87.5708         10.6163 
        1.82853         87.1402         10.5304 
        1.83466          86.518         10.4456 
        1.84078         86.3281         10.3617 
        1.84692         85.6543         10.2787 
        1.85306         85.1721         10.1965 
         1.8592         84.8646         10.1152 
        1.86533          84.339          10.035 
        1.87147         83.8154         9.95548 
        1.87761         83.5204         9.87681 
        1.88375         82.9783         9.79909 
        1.88988         82.5841         9.72229 
        1.89601         82.1543         9.64627 
        1.90215         81.7766           9.571 
        1.90829         81.2804         9.49658 
        1.91442         80.9848         9.42294 
        1.92056         80.3455         9.35016 
         1.9267         80.1257         9.27806 
        1.93284         79.6148         9.20669 
        1.93897         79.2561         9.13621 
        1.94509         78.9545         9.06661 
        1.95123          78.497         8.99757 
        1.95737         78.0626          8.9292 
        1.96349         77.5468         8.86172 
        1.96964         77.2135         8.79474 
        1.97578         76.8589         8.72843 
        1.98192          76.611         8.66294 
        1.98805          75.964         8.59811 
        1.99419         75.6383         8.53395 
        2.00033         75.4019         8.47041 
        2.00647         74.9351         8.40754 
         2.0126         74.4941         8.34542 
        2.01874         73.9927         8.28383 
        2.02488          73.685          8.2228 
        2.03101         73.3567         8.16251 
        2.03714         72.8608         8.10288 
        2.04328          72.623         8.04378 
        2.04941         72.2574         7.98532 
        2.05554         71.9959         7.92748 
        2.06167         71.5066         7.87014 
        2.06781          71.065         7.81336 
        2.07396         70.7227         7.75705 
        2.08009         70.4725          7.7014 
        2.08622         70.1204         7.64636 
        2.09237         69.7156         7.59175 
        2.09851         69.5264         7.53767 
        2.10464         69.0295          7.4842 
        2.11077         68.6984         7.43131 
        2.11691         68.4041         7.37882 
        2.12305         67.9715         7.32683 
        2.12918         67.6702         7.27547 
        2.13531         67.2993          7.2246 
        2.14145         66.9087          7.1741 
         2.1476         66.5994         7.12403 
        2.15372         66.3295         7.07468 
        2.15985         65.9257         7.02576 
        2.16599         65.6377         6.97715 
        2.17213         65.3312         6.92906 
        2.17827         64.9739         6.88144 
         2.1844          64.592         6.83431 
        2.19054         64.4074          6.7876 
        2.19666         64.0016          6.7414 
         2.2028         63.9308         6.69559 
        2.20893         63.4382         6.65018 
        2.21508         63.0986         6.60514 
        2.22122         62.8336         6.56051 
        2.22736         62.5137         6.51639 
        2.23349         62.1288         6.47268 
        2.23962         61.7666         6.42935 
        2.24577         61.4961         6.38638 
         2.2519         61.2512         6.34386 
        2.25802         60.9758          6.3018 
        2.26417         60.5429            6.26 
        2.27031         60.2976         6.21855 
        2.27644         60.0836         6.17759 
        2.28257         59.7268           6.137 
        2.28872         59.4119         6.09671 
        2.29486         59.0297         6.05678 
        2.30099         58.7726         6.01729 
        2.30712         58.6288         5.97814 
        2.31326         58.2875         5.93927 
         2.3194          57.958         5.90077 
        2.32553         57.6571         5.86268 
        2.33166         57.3089         5.82494 
         2.3378         57.0251         5.78747 
        2.34394         56.7783         5.75033 
        2.35007         56.4634         5.71356 
        2.35619         56.2357         5.67717 
        2.36233         56.0265           5.641 
        2.36848         55.6992         5.60507 
        2.37462         55.3437         5.56953 
        2.38075         55.2283         5.53434 
        2.38689         54.8845         5.49941 
        2.39303         54.5929          5.4648 
        2.39916         54.3918         5.43052 
        2.40529         54.1332         5.39654 
        2.41143         53.8676         5.36283 
        2.41757         53.5382         5.32938 
         2.4237         53.3988         5.29629 
        2.42983         52.9652         5.26348 
        2.43598         52.7478         5.23086 
        2.44211         52.5654         5.19858 
        2.44823         52.2776         5.16663 
        2.45437         51.9665         5.13487 
        2.46052         51.7178         5.10336 
        2.46665         51.5326         5.07216 
        2.47279         51.2111         5.04123 
        2.47892         51.0221         5.01054 
        2.48507         50.7559         4.98008 
         2.4912          50.583         4.94993 
