# k  (h/Mpc)    P(k)  (Mpc/h)^3    P_linear(k)  (Mpc/h)^3
     0.00783031         2057.45         2090.53 
       0.013688          2528.3         2539.21 
       0.019231         2528.64         2536.14 
      0.0249154         2296.73         2319.55 
      0.0312784         1988.63         1996.43 
      0.0375637         1704.32         1703.51 
      0.0433917          1487.1         1494.75 
      0.0492413         1343.67         1345.99 
      0.0555754         1220.87          1232.5 
      0.0619321         1143.39         1140.28 
       0.067871         1045.86          1053.8 
      0.0738098         951.494         958.941 
      0.0800417         844.095         853.425 
      0.0862327         748.567         752.463 
      0.0921407         668.635         669.078 
      0.0982031         599.444          601.92 
       0.104506           555.7         551.714 
       0.110769         519.422         516.797 
       0.116806         489.527         490.587 
       0.122832         466.943         465.574 
       0.129052          434.89         436.894 
       0.135211         403.492         404.791 
       0.141259         373.689         371.571 
       0.147318         344.033         339.698 
       0.153489         314.419         311.476 
       0.159709         292.896         288.821 
       0.165845         278.661         271.954 
       0.171974         262.977         259.103 
       0.178125         252.422         248.218 
       0.184229         242.415         237.597 
        0.19034         227.598         226.046 
       0.196428         217.857         213.445 
       0.202534         207.109         200.288 
       0.208729         193.363         187.371 
       0.214876         180.917         175.851 
       0.220989         173.376         166.149 
       0.227147         163.476         158.141 
        0.23329         156.896         151.521 
       0.239377         151.942         145.736 
       0.245482         144.187         140.163 
       0.251667         140.399          134.38 
       0.257832         134.516         128.372 
       0.263955         128.522         122.304 
       0.270079         122.855         116.381 
        0.27624         118.785         110.838 
       0.282372         113.816         105.896 
        0.28843         108.931         101.603 
       0.294538         104.764         97.7847 
       0.300721         102.348         94.2733 
        0.30691         97.9112         90.9457 
       0.313033         94.8315          87.706 
       0.319153         90.3485         84.4731 
       0.325316         88.5914         81.2315 
        0.33145         85.0322          78.087 
       0.337538          82.647          75.114 
       0.343633         79.5714         72.3419 
       0.349808         77.1589           69.76 
       0.355968         74.9578         67.3937 
       0.362074         72.5718         65.2147 
       0.368217         70.4464          63.136 
       0.374374          68.272         61.1268 
       0.380519         66.5211         59.1679 
       0.386598         64.6452         57.2711 
       0.392688         63.1792          55.425 
        0.39888         61.2347         53.6178 
       0.405048         59.6811         51.9057 
       0.411186         58.2143         50.2987 
       0.417313         56.3225         48.7852 
       0.423458         54.8968         47.3504 
       0.429607         53.4209         45.9833 
       0.435692         51.7431         44.6826 
       0.441815         50.8941         43.4155 
       0.447964         49.9895         42.1825 
       0.454126         47.9613         40.9846 
       0.460267         47.1284         39.8311 
       0.466387         45.7638          38.726 
        0.47254         45.0223         37.6627 
       0.478662         44.2226         36.6507 
       0.484765         42.9007         35.6844 
       0.490885         41.9363         34.7551 
       0.497035         41.3787         33.8566 
       0.503198         40.2656         32.9874 
       0.509342         39.2318          32.148 
       0.515458         38.4255         31.3388 
       0.521598         37.7749          30.553 
       0.527764         36.9698         29.7909 
       0.533884         36.3331         29.0609 
           0.54         35.5356         28.3571 
       0.546137         34.9681         27.6758 
       0.552299         34.3965         27.0161 
       0.558452         33.3356         26.3802 
       0.564573         32.8468         25.7684 
       0.570708         32.3134         25.1743 
       0.576825         31.5277         24.5999 
       0.582926         30.9268         24.0444 
       0.589034         30.1336         23.5051 
       0.595184         29.7467         22.9791 
       0.601379         29.1909         22.4662 
       0.607522         28.6498         21.9737 
       0.613639         28.3718         21.4984 
       0.619772         27.6292         21.0363 
       0.625918         27.4771         20.5871 
       0.632068         27.0208         20.1509 
       0.638161         26.4454         19.7312 
         0.6443         25.9215         19.3204 
       0.650464         25.4682           18.92 
       0.656582          25.298          18.534 
       0.662703          24.809         18.1587 
       0.668861         24.3547         17.7918 
       0.675024         23.9254          17.435 
       0.681124         23.5135         17.0916 
       0.687237         23.1247         16.7569 
       0.693381         22.9139         16.4298 
       0.699536         22.3218         16.1109 
       0.705665         22.2382         15.8018 
       0.711789         21.7599         15.5013 
       0.717957         21.4602         15.2066 
        0.72409          21.139         14.9212 
       0.730186         20.8429          14.645 
       0.736317         20.6216         14.3743 
       0.742472         20.2654         14.1096 
       0.748622         20.0473         13.8518 
        0.75476         19.6793         13.6011 
       0.760888         19.4084         13.3571 
       0.767043         19.1799         13.1181 
       0.773185         18.8288         12.8855 
       0.779291         18.7226         12.6599 
       0.785407         18.4809         12.4395 
       0.791564         18.1544          12.223 
       0.797719          17.772         12.0117 
       0.803834          17.735         11.8069 
       0.809972         17.5731         11.6061 
       0.816124         17.1659         11.4096 
       0.822261         16.9979         11.2182 
       0.828378         16.8135         11.0319 
       0.834502         16.6557         10.8496 
       0.840667         16.4135         10.6703 
       0.846816         16.1252         10.4956 
       0.852925         15.9762          10.326 
       0.859047         15.7964         10.1598 
       0.865192         15.6494         9.99669 
       0.871341         15.5156         9.83712 
       0.877463         15.2385         9.68178 
       0.883569         15.0411         9.53022 
       0.889708          14.814         9.38115 
       0.895864          14.706         9.23492 
       0.902008          14.589         9.09214 
       0.908149          14.426         8.95249 
       0.914301         14.3072         8.81557 
       0.920448         14.0418         8.68166 
       0.926574         13.9142         8.55103 
       0.932687         13.7695         8.42338 
       0.938823         13.5867         8.29791 
       0.944975         13.4291         8.17471 
       0.951105         13.3138         8.05448 
       0.957225          13.204         7.93689 
       0.963368         13.0669         7.82126 
       0.969511         12.9445         7.70795 
       0.975621         12.8135         7.59751 
       0.981748         12.6537         7.48897 
       0.987916         12.5675         7.38188 
        0.99406         12.3871         7.27731 
        1.00019         12.2084         7.17498 
        1.00632         12.1853         7.07473 
        1.01246         12.0516         6.97626 
        1.01859         11.8666         6.87983 
        1.02471         11.8098         6.78536 
        1.03085         11.6912         6.69235 
        1.03698         11.5156         6.60129 
        1.04314         11.4525         6.51155 
        1.04929         11.3047          6.4237 
        1.05541         11.1807         6.33783 
        1.06154         11.1056         6.25333 
        1.06769         11.0511         6.17024 
        1.07382         10.8911         6.08895 
        1.07993         10.8102         6.00931 
        1.08607         10.7102         5.93078 
        1.09222         10.6241         5.85359 
        1.09836         10.4982         5.77786 
        1.10449         10.4171         5.70358 
        1.11063         10.3119         5.63052 
        1.11677         10.2614         5.55878 
         1.1229         10.1886         5.48842 
        1.12903         10.0612         5.41923 
        1.13518         9.94177         5.35118 
        1.14131         9.87909         5.28434 
        1.14745         9.79048         5.21869 
        1.15359          9.7263         5.15415 
        1.15973         9.63824         5.09068 
        1.16584         9.49922         5.02857 
        1.17197          9.4481         4.96741 
        1.17811         9.40032         4.90709 
        1.18424         9.31319         4.84795 
        1.19038          9.2715         4.78962 
        1.19652         9.16576         4.73227 
        1.20267         9.07248         4.67587 
        1.20881         9.04928          4.6204 
        1.21495         8.97064         4.56593 
        1.22108         8.86278         4.51235 
         1.2272         8.80626         4.45976 
        1.23334         8.71533         4.40789 
        1.23949          8.6418         4.35673 
        1.24562         8.60555         4.30653 
        1.25174         8.53834          4.2572 
        1.25789         8.47269         4.20849 
        1.26402         8.43103         4.16065 
        1.27014         8.35484         4.11366 
        1.27628         8.25255         4.06727 
        1.28244           8.185          4.0215 
        1.28858         8.18085          3.9765 
        1.29471         8.08678          3.9323 
        1.30084         8.00794         3.88881 
        1.30697         8.00165         3.84592 
        1.31312         7.87729         3.80361 
        1.31925         7.82847         3.76208 
        1.32537         7.78277         3.72121 
        1.33151         7.74778          3.6808 
        1.33765         7.66919         3.64102 
        1.34378         7.61296          3.6019 
        1.34992         7.56135         3.56334 
        1.35606         7.50839         3.52526 
         1.3622         7.46621         3.48781 
        1.36833         7.40074         3.45099 
        1.37445         7.35791         3.41473 
        1.38059         7.32993         3.37888 
        1.38675         7.26222         3.34346 
        1.39288         7.22659         3.30869 
        1.39901          7.1437         3.27443 
        1.40515         7.11307         3.24058 
         1.4113         7.06682         3.20723 
        1.41742          7.0182         3.17448 
        1.42355         6.95525         3.14212 
         1.4297         6.91843         3.11012 
        1.43585         6.88965         3.07858 
        1.44198         6.85694          3.0476 
        1.44809         6.79401         3.01711 
        1.45423         6.74185         2.98692 
        1.46036         6.69586          2.9572 
        1.46649         6.65941         2.92788 
        1.47263         6.60034         2.89893 
        1.47877         6.56251         2.87039 
        1.48491         6.52724         2.84218 
        1.49104         6.48464         2.81442 
        1.49718         6.45061         2.78701 
        1.50333         6.41304         2.75992 
        1.50947         6.36197         2.73324 
         1.5156         6.32795         2.70696 
        1.52172          6.2949         2.68103 
        1.52787          6.2537         2.65539 
          1.534         6.20509         2.63011 
        1.54013         6.18036         2.60519 
        1.54627         6.12458         2.58055 
        1.55241         6.09493         2.55623 
        1.55855         6.07048         2.53225 
        1.56467         6.02297         2.50865 
         1.5708         6.00099         2.48529 
        1.57695         5.94542         2.46218 
        1.58308         5.90563         2.43943 
        1.58922         5.89187         2.41695 
        1.59535         5.86325         2.39476 
         1.6015         5.81208         2.37283 
        1.60764         5.77186         2.35117 
        1.61376         5.75224         2.32985 
        1.61989         5.71947         2.30878 
        1.62604         5.67853         2.28792 
        1.63218         5.66557         2.26733 
        1.63831         5.62858         2.24705 
        1.64444         5.59891           2.227 
        1.65059         5.53703         2.20716 
        1.65673         5.53925         2.18757 
        1.66285         5.48158         2.16828 
        1.66898         5.45844         2.14922 
        1.67512          5.4324         2.13035 
        1.68127         5.39842         2.11169 
         1.6874         5.38113         2.09329 
        1.69353         5.33603         2.07512 
        1.69967          5.3149         2.05713 
        1.70581         5.28782         2.03936 
        1.71193         5.25467         2.02187 
        1.71806         5.23659         2.00455 
        1.72421         5.19901         1.98739 
        1.73035         5.18402         1.97046 
        1.73649         5.15228         1.95373 
        1.74262         5.11717          1.9372 
        1.74876         5.10041         1.92086 
        1.75489         5.07733         1.90474 
        1.76101          5.0352         1.88881 
        1.76715         5.02203         1.87304 
        1.77329         4.99368         1.85744 
        1.77943         4.95176           1.842 
        1.78557         4.94514         1.82677 
        1.79171         4.91338          1.8117 
        1.79785         4.88672          1.7968 
        1.80399          4.8569         1.78207 
        1.81012         4.83857         1.76753 
        1.81625         4.81327         1.75316 
        1.82239          4.7936         1.73892 
        1.82853         4.76381         1.72486 
        1.83466         4.74624         1.71096 
        1.84078         4.72426         1.69722 
        1.84692         4.71184         1.68362 
        1.85306         4.67097         1.67015 
         1.8592         4.64373         1.65685 
        1.86533         4.62642          1.6437 
        1.87147         4.60883         1.63068 
        1.87761         4.58242          1.6178 
        1.88375         4.55932         1.60507 
        1.88988         4.53767         1.59249 
        1.89601         4.51807         1.58003 
        1.90215         4.49905         1.56771 
        1.90829         4.47089         1.55552 
        1.91442         4.45334         1.54345 
        1.92056         4.43224         1.53153 
         1.9267         4.40638         1.51972 
        1.93284         4.39009         1.50803 
        1.93897         4.36735         1.49649 
        1.94509         4.34882         1.48509 
        1.95123         4.32583         1.47378 
        1.95737         4.29882         1.46258 
        1.96349         4.28977         1.45153 
        1.96964          4.2724         1.44056 
        1.97578         4.24126          1.4297 
        1.98192         4.23186         1.41897 
        1.98805         4.21387         1.40835 
        1.99419         4.19156         1.39784 
        2.00033         4.18001         1.38743 
        2.00647         4.15435         1.37713 
         2.0126         4.14199         1.36696 
        2.01874         4.11213         1.35687 
        2.02488         4.10439         1.34688 
        2.03101         4.07281           1.337 
        2.03714         4.05812         1.32723 
        2.04328         4.03979         1.31755 
        2.04941         4.01636         1.30798 
        2.05554         4.00461          1.2985 
        2.06167         3.99192         1.28911 
        2.06781         3.97162         1.27981 
        2.07396         3.96157         1.27059 
        2.08009         3.94064         1.26147 
        2.08622         3.91785         1.25246 
        2.09237          3.9046         1.24351 
        2.09851         3.89149         1.23465 
        2.10464         3.87354         1.22589 
        2.11077         3.85057         1.21723 
        2.11691          3.8367         1.20863 
        2.12305         3.82523         1.20012 
        2.12918         3.81451         1.19171 
        2.13531          3.7957         1.18337 
        2.14145         3.77923          1.1751 
         2.1476          3.7568          1.1669 
        2.15372         3.74223         1.15882 
        2.15985         3.73861          1.1508 
        2.16599         3.71104         1.14284 
        2.17213         3.69715         1.13496 
        2.17827         3.68786         1.12716 
         2.1844         3.66831         1.11944 
        2.19054         3.65458         1.11179 
        2.19666          3.6363         1.10423 
         2.2028         3.62201         1.09672 
        2.20893         3.61063         1.08928 
        2.21508         3.59151         1.08191 
        2.22122         3.57775          1.0746 
        2.22736         3.56504         1.06737 
        2.23349         3.55723         1.06021 
        2.23962         3.53905         1.05311 
        2.24577         3.52332         1.04607 
         2.2519         3.51529         1.03911 
        2.25802         3.49643         1.03222 
        2.26417         3.48575         1.02537 
        2.27031         3.46801         1.01858 
        2.27644         3.45356         1.01187 
        2.28257          3.4386         1.00523 
        2.28872         3.43354        0.998627 
        2.29486         3.41511        0.992087 
        2.30099         3.39932        0.985619 
        2.30712          3.3868        0.979206 
        2.31326         3.37084        0.972839 
         2.3194         3.36274        0.966533 
        2.32553         3.34996        0.960293 
        2.33166         3.34118        0.954111 
         2.3378         3.32497        0.947975 
        2.34394         3.31316        0.941891 
        2.35007          3.2973        0.935869 
        2.35619         3.29015        0.929907 
        2.36233          3.2782        0.923983 
        2.36848         3.25919        0.918098 
        2.37462         3.25581        0.912277 
        2.38075         3.23931        0.906512 
        2.38689         3.23111        0.900792 
        2.39303         3.21622        0.895122 
        2.39916         3.20389        0.889508 
        2.40529         3.19302        0.883942 
        2.41143         3.18093        0.878419 
        2.41757         3.17171        0.872941 
         2.4237         3.16192        0.867521 
        2.42983         3.13594        0.862147 
        2.43598         3.13636        0.856804 
        2.44211         3.11838        0.851515 
        2.44823         3.11276        0.846283 
        2.45437         3.09646        0.841081 
        2.46052         3.09146        0.835919 
        2.46665          3.0802        0.830808 
        2.47279         3.06749        0.825743 
        2.47892         3.05763        0.820716 
        2.48507         3.04678        0.815727 
         2.4912         3.03019        0.810788 
