# k  (h/Mpc)    P(k)  (Mpc/h)^3    P_linear(k)  (Mpc/h)^3
     0.00783031         4964.25         5042.47 
       0.013688         6123.82         6122.18 
       0.019231         6108.83         6113.58 
      0.0249154         5521.46         5590.83 
      0.0312784         4787.75         4811.61 
      0.0375637         4111.02         4105.43 
      0.0433917         3573.52         3602.21 
      0.0492413         3235.38         3243.63 
      0.0555754         2925.64         2970.08 
      0.0619321         2758.54         2747.81 
       0.067871         2508.53         2539.38 
      0.0738098         2282.71         2310.77 
      0.0800417         2021.01         2056.49 
      0.0862327            1798         1813.19 
      0.0921407         1613.13         1612.25 
      0.0982031         1444.25         1450.42 
       0.104506          1347.9         1329.44 
       0.110769         1258.63         1245.29 
       0.116806         1184.63         1182.14 
       0.122832         1130.71         1121.86 
       0.129052         1048.65         1052.75 
       0.135211          975.67         975.391 
       0.141259         909.193         895.342 
       0.147318         840.162          818.54 
       0.153489         767.226         750.535 
       0.159709         718.952         695.944 
       0.165845          686.93         655.302 
       0.171974         648.307         624.335 
       0.178125         621.707         598.106 
       0.184229         597.374         572.513 
        0.19034         557.724         544.679 
       0.196428         538.917         514.315 
       0.202534         514.953         482.613 
       0.208729         482.604         451.486 
       0.214876         452.894         423.729 
       0.220989         436.071         400.351 
       0.227147         412.093         381.055 
        0.23329         396.005         365.103 
       0.239377         385.696         351.163 
       0.245482         362.298         337.735 
       0.251667         355.863           323.8 
       0.257832         342.241         309.324 
       0.263955         327.989         294.701 
       0.270079         314.385          280.43 
        0.27624         306.975         267.073 
       0.282372         294.426         255.165 
        0.28843         283.442          244.82 
       0.294538         271.518          235.62 
       0.300721         267.732         227.159 
        0.30691           255.5         219.141 
       0.313033         248.823         211.334 
       0.319153         238.187         203.545 
       0.325316         232.598         195.734 
        0.33145         224.103         188.157 
       0.337538         219.976         180.993 
       0.343633         212.255         174.313 
       0.349808         205.523         168.092 
       0.355968         201.468          162.39 
       0.362074         195.731          157.14 
       0.368217         190.276         152.131 
       0.374374         184.333          147.29 
       0.380519         180.559         142.569 
       0.386598         175.696         137.999 
       0.392688         172.717         133.551 
        0.39888         168.032         129.196 
       0.405048         163.959         125.071 
       0.411186         160.251         121.199 
       0.417313         156.344         117.552 
       0.423458         152.915         114.094 
       0.429607         149.155           110.8 
       0.435692          144.36         107.666 
       0.441815          143.15         104.613 
       0.447964         140.648         101.642 
       0.454126         134.439         98.7555 
       0.460267         132.871         95.9759 
       0.466387         130.589         93.3132 
        0.47254         128.001         90.7511 
       0.478662          126.48         88.3124 
       0.484765         122.835         85.9842 
       0.490885         120.682          83.745 
       0.497035         119.121           81.58 
       0.503198         115.783         79.4856 
       0.509342         113.532          77.463 
       0.515458         111.827         75.5132 
       0.521598          110.25         73.6198 
       0.527764         108.466         71.7833 
       0.533884         106.672         70.0243 
           0.54         104.635         68.3285 
       0.546137         103.599         66.6869 
       0.552299         101.964         65.0972 
       0.558452         99.5561          63.565 
       0.564573         97.7581         62.0907 
       0.570708         96.4813         60.6593 
       0.576825          94.996         59.2752 
       0.582926         93.1227         57.9366 
       0.589034         91.3877         56.6373 
       0.595184         90.2986         55.3698 
       0.601379          89.179         54.1339 
       0.607522         87.0022         52.9471 
       0.613639         86.7785         51.8019 
       0.619772         84.7592         50.6886 
       0.625918         83.9534         49.6062 
       0.632068          82.921          48.555 
       0.638161         81.8064         47.5436 
         0.6443         80.6308          46.554 
       0.650464         79.5644         45.5892 
       0.656582         78.5954         44.6589 
       0.662703         77.0627         43.7546 
       0.668861          76.211         42.8706 
       0.675024         75.2527         42.0108 
       0.681124         74.2137         41.1834 
       0.687237         72.9123          40.377 
       0.693381           72.22         39.5887 
       0.699536         71.1169         38.8202 
       0.705665         71.4224         38.0757 
       0.711789         69.4519         37.3515 
       0.717957         68.9294         36.6413 
        0.72409          67.971         35.9538 
       0.730186           66.85         35.2882 
       0.736317         66.6506          34.636 
       0.742472         65.7033         33.9981 
       0.748622         65.0892         33.3769 
        0.75476         64.3252         32.7728 
       0.760888         63.3896         32.1847 
       0.767043         62.7441         31.6089 
       0.773185         61.9633         31.0485 
       0.779291         61.5877          30.505 
       0.785407          60.991         29.9738 
       0.791564         60.1249         29.4521 
       0.797719         59.1799         28.9431 
       0.803834          58.998         28.4495 
       0.809972         57.9947         27.9658 
       0.816124         57.3833         27.4923 
       0.822261         56.9727         27.0311 
       0.828378          56.534          26.582 
       0.834502         55.8686         26.1429 
       0.840667         55.3676         25.7109 
       0.846816         54.6138         25.2899 
       0.852925         54.1552         24.8812 
       0.859047         53.4335         24.4807 
       0.865192         53.1203         24.0877 
       0.871341         52.8533         23.7032 
       0.877463         51.8252         23.3289 
       0.883569         51.4903         22.9637 
       0.889708         51.1925         22.6045 
       0.895864         50.6945         22.2522 
       0.902008         50.2376         21.9081 
       0.908149         49.8185         21.5716 
       0.914301         49.4741         21.2417 
       0.920448         48.8815         20.9191 
       0.926574         48.4702         20.6043 
       0.932687         48.0892         20.2967 
       0.938823         47.3672         19.9944 
       0.944975          47.242         19.6975 
       0.951105         46.7633         19.4078 
       0.957225         46.1801         19.1245 
       0.963368         46.1325         18.8459 
       0.969511         45.7201         18.5728 
       0.975621         45.3373         18.3067 
       0.981748         44.7897         18.0452 
       0.987916         44.5387         17.7872 
        0.99406         44.2444         17.5352 
        1.00019         43.6877         17.2886 
        1.00632         43.4889          17.047 
        1.01246         43.1575         16.8098 
        1.01859         42.5679         16.5774 
        1.02471         42.6186         16.3498 
        1.03085         42.1705         16.1257 
        1.03698         41.6785         15.9063 
        1.04314         41.3179           15.69 
        1.04929         41.1091         15.4783 
        1.05541         40.6572         15.2714 
        1.06154         40.5891         15.0678 
        1.06769          40.205         14.8676 
        1.07382         39.9318         14.6717 
        1.07993         39.7713         14.4799 
        1.08607         39.2759         14.2906 
        1.09222         39.1489         14.1046 
        1.09836          38.796         13.9222 
        1.10449         38.5141         13.7432 
        1.11063         38.0465         13.5671 
        1.11677         37.8838         13.3943 
         1.1229         37.7446         13.2247 
        1.12903         37.2083          13.058 
        1.13518         37.1732          12.894 
        1.14131         37.0302          12.733 
        1.14745         36.5582         12.5748 
        1.15359         36.5051         12.4193 
        1.15973          36.064         12.2663 
        1.16584         35.7951         12.1167 
        1.17197         35.7552         11.9693 
        1.17811         35.3836          11.824 
        1.18424         35.0624         11.6815 
        1.19038         35.0091         11.5409 
        1.19652         34.8146         11.4027 
        1.20267         34.5535         11.2668 
        1.20881         34.2748         11.1332 
        1.21495         34.0321         11.0019 
        1.22108         33.8294         10.8728 
         1.2272         33.4624         10.7461 
        1.23334         33.3715         10.6211 
        1.23949         33.2286         10.4978 
        1.24562         32.9982         10.3769 
        1.25174         32.8457          10.258 
        1.25789          32.593         10.1407 
        1.26402         32.4022         10.0254 
        1.27014         32.0802         9.91214 
        1.27628         31.9511         9.80035 
        1.28244         31.7595         9.69008 
        1.28858         31.6424         9.58166 
        1.29471          31.466         9.47514 
        1.30084          31.268         9.37036 
        1.30697         31.0146           9.267 
        1.31312         30.7448         9.16506 
        1.31925         30.6686         9.06498 
        1.32537         30.5228          8.9665 
        1.33151         30.2871         8.86913 
        1.33765         30.2346         8.77328 
        1.34378         30.0426         8.67903 
        1.34992         29.6668         8.58611 
        1.35606         29.5613         8.49435 
         1.3622         29.3964         8.40411 
        1.36833         29.2332         8.31539 
        1.37445         29.2283         8.22801 
        1.38059         29.0085         8.14163 
        1.38675         28.7194         8.05628 
        1.39288         28.6656          7.9725 
        1.39901         28.4124         7.88996 
        1.40515         28.3074          7.8084 
         1.4113         28.1837         7.72804 
        1.41742         27.8916         7.64912 
        1.42355         27.8542         7.57115 
         1.4297         27.6783         7.49405 
        1.43585         27.6301         7.41805 
        1.44198          27.354          7.3434 
        1.44809         27.2384         7.26992 
        1.45423         27.1381         7.19718 
        1.46036          27.043         7.12557 
        1.46649         26.8309         7.05492 
        1.47263         26.6803         6.98516 
        1.47877         26.5872         6.91639 
        1.48491         26.4347         6.84843 
        1.49104         26.3518         6.78153 
        1.49718         26.0995         6.71548 
        1.50333         26.0556          6.6502 
        1.50947         25.9383         6.58593 
         1.5156         25.7389         6.52261 
        1.52172         25.5624         6.46012 
        1.52787         25.5756         6.39833 
          1.534         25.3445         6.33742 
        1.54013         25.1652         6.27738 
        1.54627          25.128         6.21801 
        1.55241         24.9543         6.15939 
        1.55855         24.8158         6.10162 
        1.56467         24.7043         6.04476 
         1.5708         24.6409         5.98846 
        1.57695         24.3818          5.9328 
        1.58308         24.4413         5.87797 
        1.58922         24.2495          5.8238 
        1.59535         24.0942         5.77034 
         1.6015         23.9909         5.71748 
        1.60764         23.9381         5.66531 
        1.61376         23.7579         5.61393 
        1.61989         23.5807         5.56316 
        1.62604         23.5671          5.5129 
        1.63218         23.3967         5.46329 
        1.63831         23.3468         5.41441 
        1.64444         23.1921         5.36611 
        1.65059         23.0583         5.31829 
        1.65673         22.9685          5.2711 
        1.66285         22.8614         5.22462 
        1.66898         22.7691         5.17868 
        1.67512         22.6948         5.13321 
        1.68127         22.5208         5.08824 
         1.6874         22.4308         5.04392 
        1.69353         22.3656         5.00015 
        1.69967         22.1978          4.9568 
        1.70581         22.1151         4.91398 
        1.71193         22.0124         4.87183 
        1.71806         21.9124         4.83009 
        1.72421          21.802         4.78875 
        1.73035         21.7171         4.74795 
        1.73649           21.62         4.70763 
        1.74262          21.542         4.66782 
        1.74876         21.4516         4.62844 
        1.75489         21.3254          4.5896 
        1.76101         21.2454         4.55122 
        1.76715          21.157         4.51322 
        1.77329         21.0843         4.47562 
        1.77943         20.9479         4.43842 
        1.78557         20.8796         4.40171 
        1.79171         20.8058         4.36541 
        1.79785         20.6601         4.32951 
        1.80399          20.569         4.29402 
        1.81012         20.5511         4.25898 
        1.81625         20.4296         4.22435 
        1.82239         20.3998         4.19005 
        1.82853         20.2084         4.15615 
        1.83466         20.1067         4.12266 
        1.84078         19.9886         4.08957 
        1.84692          19.991          4.0568 
        1.85306         19.8664         4.02434 
         1.8592         19.7843         3.99229 
        1.86533         19.7007         3.96061 
        1.87147         19.6091         3.92923 
        1.87761         19.5876         3.89819 
        1.88375         19.4596         3.86751 
        1.88988         19.4054          3.8372 
        1.89601         19.2674          3.8072 
        1.90215         19.2064         3.77749 
        1.90829         19.1612         3.74812 
        1.91442         19.0618         3.71905 
        1.92056          18.985         3.69033 
         1.9267         18.9022         3.66187 
        1.93284         18.7971          3.6337 
        1.93897         18.7465         3.60588 
        1.94509         18.6663         3.57842 
        1.95123         18.5536         3.55117 
        1.95737         18.5044         3.52418 
        1.96349         18.4216         3.49755 
        1.96964         18.3339         3.47112 
        1.97578         18.2885         3.44494 
        1.98192         18.1594          3.4191 
        1.98805         18.1296         3.39351 
        1.99419         18.0386         3.36819 
        2.00033         17.9391         3.34311 
        2.00647         17.8814         3.31829 
         2.0126         17.7811         3.29378 
        2.01874         17.7195         3.26947 
        2.02488         17.6904         3.24538 
        2.03101         17.6238         3.22159 
        2.03714         17.5377         3.19805 
        2.04328         17.4358         3.17473 
        2.04941         17.3609         3.15165 
        2.05554         17.3513         3.12882 
        2.06167         17.2682         3.10619 
        2.06781         17.1977         3.08378 
        2.07396         17.1284         3.06156 
        2.08009         17.0644          3.0396 
        2.08622         16.9663         3.01787 
        2.09237         16.9105         2.99632 
        2.09851         16.8399         2.97497 
        2.10464         16.7805         2.95387 
        2.11077         16.6773           2.933 
        2.11691         16.6618         2.91228 
        2.12305         16.5661         2.89176 
        2.12918         16.5014         2.87149 
        2.13531          16.452         2.85141 
        2.14145         16.3632         2.83148 
         2.1476         16.3142         2.81172 
        2.15372         16.2586         2.79224 
        2.15985         16.1564         2.77293 
        2.16599         16.1275         2.75375 
        2.17213         16.0678         2.73477 
        2.17827         16.0071         2.71597 
         2.1844         15.9317         2.69737 
        2.19054         15.8629         2.67894 
        2.19666         15.8347          2.6607 
         2.2028         15.7839         2.64262 
        2.20893         15.6775          2.6247 
        2.21508         15.6252         2.60692 
        2.22122         15.5461         2.58931 
        2.22736         15.5045         2.57189 
        2.23349         15.4326         2.55464 
        2.23962         15.3694         2.53754 
        2.24577          15.298         2.52058 
         2.2519         15.2883          2.5038 
        2.25802         15.2335          2.4872 
        2.26417         15.1777          2.4707 
        2.27031         15.0957         2.45434 
        2.27644         15.0451         2.43818 
        2.28257         14.9773         2.42216 
        2.28872         14.9165         2.40625 
        2.29486         14.8808          2.3905 
        2.30099         14.8169         2.37491 
        2.30712         14.7881         2.35946 
        2.31326         14.7185         2.34412 
         2.3194         14.6569         2.32892 
        2.32553         14.5975         2.31389 
        2.33166         14.5067         2.29899 
         2.3378         14.4731         2.28421 
        2.34394         14.4246         2.26955 
        2.35007         14.3559         2.25504 
        2.35619         14.2899         2.24067 
        2.36233         14.2576         2.22639 
        2.36848         14.2221         2.21221 
        2.37462         14.2003         2.19819 
        2.38075         14.1095          2.1843 
        2.38689         14.0773         2.17051 
        2.39303         14.0078         2.15685 
        2.39916         13.9614         2.14332 
        2.40529         13.9052         2.12991 
        2.41143         13.8588         2.11661 
        2.41757         13.8163         2.10341 
         2.4237         13.7521         2.09035 
        2.42983         13.7066          2.0774 
        2.43598         13.6591         2.06452 
        2.44211          13.594         2.05178 
        2.44823          13.541         2.03917 
        2.45437         13.5249         2.02664 
        2.46052         13.4657          2.0142 
        2.46665         13.4031         2.00188 
        2.47279         13.3453         1.98968 
        2.47892         13.3229         1.97757 
        2.48507          13.285         1.96554 
         2.4912         13.2275         1.95364 
