# k  (h/Mpc)    P(k)  (Mpc/h)^3    P_linear(k)  (Mpc/h)^3
     0.00783031         12063.3           12255 
       0.013688         14963.1         14872.5 
       0.019231         14859.7         14848.2 
      0.0249154           13322         13576.6 
      0.0312784         11571.5         11683.2 
      0.0375637         9966.57         9967.83 
      0.0433917         8608.17         8745.64 
      0.0492413         7818.45         7874.79 
      0.0555754         7009.16         7210.46 
      0.0619321         6674.46         6670.73 
       0.067871         6012.33         6164.61 
      0.0738098         5476.43         5609.58 
      0.0800417         4834.29         4992.24 
      0.0862327         4324.75         4401.58 
      0.0921407         3914.12         3913.76 
      0.0982031         3503.42         3520.89 
       0.104506         3301.32         3227.18 
       0.110769         3077.98         3022.91 
       0.116806         2901.68         2869.58 
       0.122832         2763.02         2723.26 
       0.129052          2548.2         2555.49 
       0.135211         2383.19          2367.7 
       0.141259         2244.45         2173.38 
       0.147318         2089.06         1986.94 
       0.153489         1908.48         1821.86 
       0.159709         1804.29         1689.34 
       0.165845         1736.66         1590.69 
       0.171974         1645.63         1515.51 
       0.178125         1571.73         1451.84 
       0.184229         1507.13         1389.72 
        0.19034         1410.57         1322.15 
       0.196428         1374.61         1248.44 
       0.202534         1317.21         1171.49 
       0.208729         1246.31         1095.93 
       0.214876         1184.09         1028.55 
       0.220989         1143.59         971.807 
       0.227147         1091.59         924.967 
        0.23329         1049.76         886.244 
       0.239377         1030.09         852.408 
       0.245482         963.179         819.812 
       0.251667         954.896         785.986 
       0.257832          916.79         750.847 
       0.263955         884.547          715.35 
       0.270079         851.221          680.71 
        0.27624         840.113         648.287 
       0.282372         804.954          619.38 
        0.28843         790.994         594.271 
       0.294538         751.345         571.937 
       0.300721          747.86         551.399 
        0.30691         714.778         531.936 
       0.313033         700.671         512.987 
       0.319153         682.535         494.078 
       0.325316         661.256         475.118 
        0.33145         643.233         456.726 
       0.337538         633.642         439.337 
       0.343633         614.941         423.123 
       0.349808         593.547         408.021 
       0.355968         589.312         394.181 
       0.362074         580.059         381.436 
       0.368217         563.375         369.277 
       0.374374         539.657         357.526 
       0.380519         537.734         346.068 
       0.386598         523.631         334.974 
       0.392688         520.976         324.176 
        0.39888         505.644         313.606 
       0.405048         495.831         303.592 
       0.411186         487.744         294.193 
       0.417313         478.163         285.341 
       0.423458         469.395         276.948 
       0.429607         461.375         268.952 
       0.435692         450.278         261.344 
       0.441815         446.571         253.933 
       0.447964         437.282         246.722 
       0.454126         427.003         239.715 
       0.460267         419.797         232.968 
       0.466387         415.068         226.505 
        0.47254         407.097         220.286 
       0.478662         405.961         214.366 
       0.484765         392.471         208.714 
       0.490885         388.842         203.279 
       0.497035         381.802         198.024 
       0.503198         376.152          192.94 
       0.509342         373.246         188.031 
       0.515458         369.259         183.298 
       0.521598         360.763         178.702 
       0.527764          354.63         174.244 
       0.533884          352.31         169.974 
           0.54          347.34         165.858 
       0.546137         345.821         161.873 
       0.552299         338.662         158.014 
       0.558452          336.84         154.295 
       0.564573         331.804         150.716 
       0.570708          325.92         147.242 
       0.576825         319.722         143.882 
       0.582926         317.752         140.633 
       0.589034         314.801         137.479 
       0.595184         311.842         134.402 
       0.601379         307.811         131.402 
       0.607522         303.005         128.522 
       0.613639         301.479         125.742 
       0.619772         294.509         123.039 
       0.625918         293.534         120.412 
       0.632068         288.953          117.86 
       0.638161         287.794         115.405 
         0.6443         282.867         113.003 
       0.650464         280.346         110.661 
       0.656582         278.507         108.403 
       0.662703         277.039         106.208 
       0.668861         272.011         104.062 
       0.675024         269.086         101.975 
       0.681124          267.63         99.9669 
       0.687237         264.565         98.0094 
       0.693381          260.63         96.0959 
       0.699536         258.395         94.2305 
       0.705665         256.367         92.4232 
       0.711789         254.108         90.6653 
       0.717957          252.52         88.9415 
        0.72409         249.837         87.2725 
       0.730186         247.087         85.6569 
       0.736317         244.421         84.0739 
       0.742472         243.216         82.5254 
       0.748622         240.951         81.0177 
        0.75476         238.781         79.5513 
       0.760888         235.863         78.1238 
       0.767043         235.908          76.726 
       0.773185          233.02         75.3657 
       0.779291         228.859         74.0464 
       0.785407         228.353         72.7571 
       0.791564         225.947         71.4907 
       0.797719         223.449         70.2552 
       0.803834          222.11         69.0571 
       0.809972         220.838         67.8828 
       0.816124         220.566         66.7335 
       0.822261          217.48         65.6141 
       0.828378         215.593         64.5241 
       0.834502         215.042          63.458 
       0.840667         212.041         62.4094 
       0.846816         210.496         61.3877 
       0.852925         209.633         60.3954 
       0.859047         207.705         59.4232 
       0.865192          205.56         58.4694 
       0.871341         203.876         57.5361 
       0.877463         202.494         56.6275 
       0.883569          201.78         55.7411 
       0.889708         199.635         54.8692 
       0.895864          197.34         54.0139 
       0.902008         196.594         53.1788 
       0.908149         195.846          52.362 
       0.914301         193.263         51.5612 
       0.920448         191.977          50.778 
       0.926574         190.789         50.0139 
       0.932687         190.684         49.2673 
       0.938823         188.291         48.5334 
       0.944975         186.839         47.8129 
       0.951105         185.994         47.1097 
       0.957225          184.26         46.4219 
       0.963368         182.044         45.7456 
       0.969511         181.449         45.0829 
       0.975621         179.946         44.4369 
       0.981748         179.902         43.8021 
       0.987916         177.902         43.1757 
        0.99406         176.258         42.5641 
        1.00019         176.216         41.9656 
        1.00632          174.55         41.3792 
        1.01246         173.372         40.8032 
        1.01859         172.762         40.2393 
        1.02471          170.86         39.6867 
        1.03085         169.121         39.1427 
        1.03698         168.476         38.6101 
        1.04314         167.001         38.0853 
        1.04929         166.012         37.5714 
        1.05541         165.731         37.0692 
        1.06154         164.184         36.5749 
        1.06769         164.049          36.089 
        1.07382         162.527         35.6135 
        1.07993         161.124         35.1477 
        1.08607         160.393         34.6884 
        1.09222         159.689         34.2369 
        1.09836         158.277          33.794 
        1.10449         156.756         33.3595 
        1.11063         155.516         32.9322 
        1.11677         155.318         32.5126 
         1.1229         153.931         32.1011 
        1.12903         153.203         31.6964 
        1.13518         152.625         31.2984 
        1.14131          151.11         30.9074 
        1.14745         150.742         30.5235 
        1.15359         149.626          30.146 
        1.15973         148.966         29.7747 
        1.16584          147.39         29.4115 
        1.17197         146.888         29.0538 
        1.17811          146.04         28.7009 
        1.18424         145.305          28.355 
        1.19038         144.847         28.0138 
        1.19652         143.637         27.6784 
        1.20267         143.003         27.3485 
        1.20881         141.711         27.0241 
        1.21495         141.168         26.7055 
        1.22108         140.386         26.3921 
         1.2272         139.119         26.0845 
        1.23334         138.631         25.7812 
        1.23949         137.578         25.4819 
        1.24562         136.937         25.1883 
        1.25174          135.63         24.8998 
        1.25789         135.058         24.6149 
        1.26402         134.169         24.3351 
        1.27014         133.353         24.0603 
        1.27628         132.821         23.7889 
        1.28244         132.348         23.5212 
        1.28858         131.641         23.2581 
        1.29471         130.188         22.9995 
        1.30084         129.893         22.7452 
        1.30697           128.9         22.4943 
        1.31312         128.468         22.2468 
        1.31925         127.461         22.0039 
        1.32537         126.883         21.7649 
        1.33151         125.699         21.5285 
        1.33765         125.355         21.2958 
        1.34378         124.625         21.0671 
        1.34992         124.289         20.8415 
        1.35606         123.619         20.6188 
         1.3622         122.543         20.3997 
        1.36833         121.792         20.1844 
        1.37445         121.115         19.9723 
        1.38059         120.594         19.7626 
        1.38675         119.803         19.5554 
        1.39288         119.431         19.3521 
        1.39901         118.938         19.1517 
        1.40515         117.931         18.9537 
         1.4113         117.088         18.7587 
        1.41742         116.668         18.5671 
        1.42355         115.901         18.3778 
         1.4297         115.359         18.1907 
        1.43585         114.353         18.0062 
        1.44198         114.146          17.825 
        1.44809         113.369         17.6467 
        1.45423         112.718         17.4701 
        1.46036         112.326         17.2963 
        1.46649         111.475         17.1248 
        1.47263         110.916         16.9554 
        1.47877         110.574         16.7885 
        1.48491         109.408         16.6235 
        1.49104         109.302         16.4612 
        1.49718         108.357         16.3008 
        1.50333         107.969         16.1424 
        1.50947         107.471         15.9864 
         1.5156         106.709         15.8327 
        1.52172         106.075          15.681 
        1.52787         105.627          15.531 
          1.534         104.974         15.3832 
        1.54013         104.376         15.2374 
        1.54627         103.992         15.0933 
        1.55241         103.212          14.951 
        1.55855         102.727         14.8108 
        1.56467         102.428         14.6728 
         1.5708         101.595         14.5361 
        1.57695         101.472          14.401 
        1.58308         100.575         14.2679 
        1.58922         100.371         14.1364 
        1.59535          99.681         14.0066 
         1.6015         99.1574         13.8783 
        1.60764         98.6173         13.7517 
        1.61376         98.4299          13.627 
        1.61989         97.5633         13.5037 
        1.62604         97.2938         13.3817 
        1.63218         96.7603         13.2613 
        1.63831         95.9012         13.1427 
        1.64444         95.6715         13.0254 
        1.65059         95.1574         12.9093 
        1.65673         94.3067         12.7948 
        1.66285         94.1528          12.682 
        1.66898         93.6121         12.5705 
        1.67512         93.0984         12.4601 
        1.68127         92.6221          12.351 
         1.6874         91.9748         12.2434 
        1.69353         91.5084         12.1371 
        1.69967         91.1422         12.0319 
        1.70581         90.7345         11.9279 
        1.71193         90.4003         11.8256 
        1.71806         89.7913         11.7243 
        1.72421         89.1824          11.624 
        1.73035         88.8425         11.5249 
        1.73649         88.3328         11.4271 
        1.74262         87.8179         11.3304 
        1.74876          87.542         11.2348 
        1.75489            86.8         11.1406 
        1.76101         86.5326         11.0474 
        1.76715         85.9305         10.9552 
        1.77329         85.6896         10.8639 
        1.77943          84.986         10.7736 
        1.78557         84.8695         10.6845 
        1.79171         84.1528         10.5964 
        1.79785         83.7743         10.5092 
        1.80399         83.4242         10.4231 
        1.81012         83.1007          10.338 
        1.81625         82.5279          10.254 
        1.82239         82.2502         10.1707 
        1.82853         81.8953         10.0884 
        1.83466         81.3445         10.0071 
        1.84078         81.1351         9.92683 
        1.84692         80.4728         9.84727 
        1.85306         80.0354         9.76849 
         1.8592         79.7262         9.69069 
        1.86533         79.2784         9.61379 
        1.87147          78.746         9.53763 
        1.87761         78.4979         9.46226 
        1.88375         78.0194          9.3878 
        1.88988         77.6461         9.31422 
        1.89601          77.228         9.24139 
        1.90215         76.8895         9.16929 
        1.90829         76.4653         9.09799 
        1.91442         76.1504         9.02744 
        1.92056         75.5309         8.95771 
         1.9267         75.3534         8.88864 
        1.93284         74.8447         8.82027 
        1.93897         74.5045         8.75274 
        1.94509         74.2309         8.68607 
        1.95123         73.7918         8.61993 
        1.95737         73.4495         8.55443 
        1.96349         72.9093         8.48978 
        1.96964         72.6574         8.42561 
        1.97578         72.3336         8.36208 
        1.98192          72.042         8.29934 
        1.98805          71.541         8.23723 
        1.99419          71.144         8.17576 
        2.00033          70.916         8.11489 
        2.00647         70.5331         8.05466 
         2.0126         70.0703         7.99514 
        2.01874         69.6364         7.93614 
        2.02488         69.3734         7.87768 
        2.03101          69.102         7.81991 
        2.03714         68.6209         7.76279 
        2.04328         68.3896         7.70617 
        2.04941         68.0311         7.65016 
        2.05554         67.7963         7.59475 
        2.06167          67.337         7.53981 
        2.06781         66.9577         7.48541 
        2.07396         66.6168         7.43148 
        2.08009         66.3864         7.37816 
        2.08622         66.0742         7.32543 
        2.09237         65.6694         7.27311 
        2.09851         65.5107          7.2213 
        2.10464         65.0382         7.17007 
        2.11077         64.7027          7.1194 
        2.11691          64.404         7.06912 
        2.12305         64.0794         7.01931 
        2.12918         63.7965         6.97011 
        2.13531         63.3891         6.92137 
        2.14145         63.0833         6.87299 
         2.1476         62.8123         6.82502 
        2.15372         62.5265         6.77774 
        2.15985         62.1626         6.73087 
        2.16599         61.8764         6.68431 
        2.17213         61.6112         6.63824 
        2.17827         61.2828         6.59261 
         2.1844         60.9016         6.54746 
        2.19054         60.6801         6.50271 
        2.19666          60.339         6.45845 
         2.2028         60.2812         6.41456 
        2.20893         59.8659         6.37106 
        2.21508         59.4998         6.32791 
        2.22122         59.2798         6.28515 
        2.22736         58.9882         6.24288 
        2.23349         58.6224           6.201 
        2.23962         58.2762         6.15949 
        2.24577         58.0002         6.11833 
         2.2519         57.7484         6.07759 
        2.25802         57.5436          6.0373 
        2.26417         57.1106         5.99726 
        2.27031         56.8987         5.95754 
        2.27644         56.7153          5.9183 
        2.28257         56.3529         5.87942 
        2.28872         56.0593         5.84082 
        2.29486         55.7787         5.80257 
        2.30099          55.509         5.76474 
        2.30712         55.3429         5.72723 
        2.31326         54.9982         5.68999 
         2.3194         54.6997         5.65311 
        2.32553         54.4236         5.61661 
        2.33166         54.1087         5.58045 
         2.3378         53.8705         5.54456 
        2.34394         53.5896         5.50898 
        2.35007         53.2974         5.47375 
        2.35619          53.104         5.43888 
        2.36233         52.9282         5.40423 
        2.36848         52.5985         5.36981 
        2.37462         52.3011         5.33577 
        2.38075          52.162         5.30205 
        2.38689         51.8417         5.26859 
        2.39303         51.5857         5.23543 
        2.39916         51.4039         5.20259 
        2.40529         51.1597         5.17004 
        2.41143         50.9048         5.13774 
        2.41757         50.5953          5.1057 
         2.4237         50.4458         5.07399 
        2.42983         50.0688         5.04256 
        2.43598         49.8614         5.01131 
        2.44211         49.7016         4.98038 
        2.44823         49.4118         4.94978 
        2.45437         49.1433         4.91935 
        2.46052         48.8798         4.88916 
        2.46665         48.7012         4.85927 
        2.47279         48.4372         4.82964 
        2.47892         48.2667         4.80024 
        2.48507         47.9864         4.77106 
         2.4912         47.8411         4.74217 
