# k  (h/Mpc)    P(k)  (Mpc/h)^3    P_linear(k)  (Mpc/h)^3
     0.00783031         14667.6           14898 
       0.013688           18219         18078.2 
       0.019231         18067.9         18047.7 
      0.0249154         16158.6         16501.5 
      0.0312784         14040.1         14199.8 
      0.0375637         12103.8         12114.7 
      0.0433917         10434.1         10629.1 
      0.0492413         9485.37         9570.66 
      0.0555754         8480.94         8763.19 
      0.0619321         8097.12         8107.18 
       0.067871         7274.15         7492.05 
      0.0738098          6628.6         6817.48 
      0.0800417         5846.87         6067.19 
      0.0862327         5239.38         5349.33 
      0.0921407         4755.08         4756.47 
      0.0982031         4257.79         4278.99 
       0.104506         4021.75         3922.04 
       0.110769         3748.53         3673.78 
       0.116806         3537.78         3487.43 
       0.122832         3364.76          3309.6 
       0.129052         3099.41         3105.71 
       0.135211         2902.37         2877.48 
       0.141259         2742.15         2641.32 
       0.147318         2558.74         2414.74 
       0.153489         2338.68         2214.12 
       0.159709         2214.98         2053.06 
       0.165845         2137.54         1933.16 
       0.171974         2028.13         1841.81 
       0.178125         1935.01         1764.43 
       0.184229         1852.55         1688.92 
        0.19034         1740.87         1606.81 
       0.196428         1697.15         1517.24 
       0.202534         1625.58         1423.71 
       0.208729         1542.92         1331.89 
       0.214876         1473.28            1250 
       0.220989         1422.74         1181.04 
       0.227147         1362.57         1124.11 
        0.23329         1310.57         1077.05 
       0.239377         1288.57         1035.93 
       0.245482         1206.63         996.316 
       0.251667         1198.08         955.207 
       0.257832         1149.34         912.503 
       0.263955         1109.73         869.363 
       0.270079         1069.48         827.265 
        0.27624         1056.48         787.861 
       0.282372         1012.38         752.731 
        0.28843         1001.42         722.215 
       0.294538         950.854         695.074 
       0.300721         946.415         670.114 
        0.30691         906.912         646.461 
       0.313033         889.083         623.431 
       0.319153         870.469         600.451 
       0.325316         842.429         577.409 
        0.33145          821.76         555.057 
       0.337538         808.175         533.924 
       0.343633         787.494         514.219 
       0.349808          759.92         495.866 
       0.355968         755.071         479.046 
       0.362074         745.988         463.557 
       0.368217         723.342         448.781 
       0.374374         693.829         434.499 
       0.380519         693.823         420.575 
       0.386598         674.592         407.092 
       0.392688          672.14          393.97 
        0.39888         652.208         381.124 
       0.405048         641.775         368.954 
       0.411186         632.519         357.531 
       0.417313         619.508         346.773 
       0.423458         608.219         336.574 
       0.429607         599.617         326.856 
       0.435692         585.775         317.611 
       0.441815         580.836         308.604 
       0.447964         568.812          299.84 
       0.454126          560.22         291.325 
       0.460267         548.228         283.125 
       0.466387          542.15          275.27 
        0.47254         534.639         267.712 
       0.478662         531.741         260.518 
       0.484765         514.464          253.65 
       0.490885         510.707         247.044 
       0.497035         500.706         240.658 
       0.503198         495.894         234.479 
       0.509342         491.707         228.513 
       0.515458         487.581         222.761 
       0.521598         475.326         217.175 
       0.527764         467.069         211.758 
       0.533884         465.046         206.569 
           0.54         459.037         201.566 
       0.546137         456.541         196.723 
       0.552299         448.351         192.034 
       0.558452         446.023         187.514 
       0.564573         439.891         183.165 
       0.570708         433.516         178.942 
       0.576825         422.895         174.859 
       0.582926         422.754          170.91 
       0.589034         418.968         167.077 
       0.595184         415.306         163.338 
       0.601379         409.078         159.692 
       0.607522         403.442         156.191 
       0.613639         402.292         152.813 
       0.619772         393.141         149.529 
       0.625918         391.871         146.336 
       0.632068         385.782         143.235 
       0.638161         384.356         140.251 
         0.6443         377.716         137.332 
       0.650464         375.061         134.486 
       0.656582         372.489         131.742 
       0.662703         371.163         129.074 
       0.668861         364.654         126.466 
       0.675024         361.423          123.93 
       0.681124          358.71         121.489 
       0.687237         355.311          119.11 
       0.693381          350.36         116.785 
       0.699536         346.304         114.518 
       0.705665         344.172         112.321 
       0.711789         342.326         110.185 
       0.717957          339.46          108.09 
        0.72409         336.841         106.062 
       0.730186         332.711         104.098 
       0.736317         329.577         102.174 
       0.742472         328.012         100.293 
       0.748622         324.514         98.4603 
        0.75476         320.843         96.6782 
       0.760888         317.536         94.9434 
       0.767043         317.993         93.2447 
       0.773185         314.102         91.5915 
       0.779291         309.434         89.9882 
       0.785407         308.571         88.4213 
       0.791564          304.76         86.8822 
       0.797719         302.437         85.3808 
       0.803834         299.785         83.9246 
       0.809972         298.966         82.4976 
       0.816124         298.284         81.1008 
       0.822261         294.235         79.7405 
       0.828378         291.949         78.4157 
       0.834502         289.886         77.1202 
       0.840667         287.128         75.8458 
       0.846816         285.557         74.6041 
       0.852925         283.747         73.3982 
       0.859047         281.717         72.2167 
       0.865192         278.397         71.0575 
       0.871341         276.356         69.9233 
       0.877463         275.256         68.8191 
       0.883569         273.777         67.7418 
       0.889708         270.896         66.6822 
       0.895864         268.694         65.6428 
       0.902008         267.077         64.6279 
       0.908149         265.342         63.6352 
       0.914301         262.263          62.662 
       0.920448         260.813         61.7102 
       0.926574         258.135         60.7816 
       0.932687         258.394         59.8743 
       0.938823         255.406         58.9824 
       0.944975         254.488         58.1067 
       0.951105          252.59         57.2521 
       0.957225         250.767         56.4162 
       0.963368         247.583         55.5943 
       0.969511         246.675         54.7889 
       0.975621         244.476         54.0039 
       0.981748         244.318         53.2324 
       0.987916         242.324         52.4712 
        0.99406         239.104         51.7278 
        1.00019         238.858         51.0005 
        1.00632         237.298         50.2879 
        1.01246          235.32         49.5879 
        1.01859         235.565         48.9025 
        1.02471         231.917          48.231 
        1.03085         230.275         47.5699 
        1.03698         229.377         46.9227 
        1.04314         227.156         46.2848 
        1.04929         225.812         45.6603 
        1.05541         226.128         45.0499 
        1.06154         222.745         44.4493 
        1.06769         222.405         43.8587 
        1.07382           220.7         43.2809 
        1.07993         219.031         42.7148 
        1.08607         218.492         42.1566 
        1.09222          216.83         41.6079 
        1.09836         215.207         41.0696 
        1.10449         212.986         40.5416 
        1.11063         211.281         40.0223 
        1.11677         210.947         39.5124 
         1.1229         209.284         39.0122 
        1.12903         208.265         38.5204 
        1.13518         206.894         38.0367 
        1.14131         205.152         37.5616 
        1.14745         205.127          37.095 
        1.15359         203.236         36.6362 
        1.15973         201.764         36.1851 
        1.16584         200.305         35.7436 
        1.17197         200.127         35.3088 
        1.17811          197.94         34.8801 
        1.18424         196.914         34.4597 
        1.19038         196.337          34.045 
        1.19652         194.697         33.6374 
        1.20267         194.338         33.2365 
        1.20881         192.457         32.8423 
        1.21495         191.449         32.4551 
        1.22108         190.245         32.0742 
         1.2272         188.839         31.7004 
        1.23334         188.265         31.3317 
        1.23949         186.774          30.968 
        1.24562         185.962         30.6112 
        1.25174         184.501         30.2606 
        1.25789         183.256         29.9144 
        1.26402          181.88         29.5743 
        1.27014         180.678         29.2403 
        1.27628         180.021         28.9105 
        1.28244         179.853         28.5852 
        1.28858         177.855         28.2654 
        1.29471          176.51         27.9512 
        1.30084         175.993          27.642 
        1.30697         174.493         27.3371 
        1.31312         173.363         27.0364 
        1.31925         172.654         26.7412 
        1.32537         171.937         26.4507 
        1.33151         170.218         26.1635 
        1.33765         169.309         25.8807 
        1.34378         168.675         25.6027 
        1.34992         167.892         25.3285 
        1.35606         167.734         25.0579 
         1.3622         165.973         24.7917 
        1.36833         164.418           24.53 
        1.37445         163.821         24.2722 
        1.38059          162.65         24.0173 
        1.38675         162.105         23.7656 
        1.39288         161.174         23.5184 
        1.39901         160.891         23.2749 
        1.40515         159.099         23.0344 
         1.4113         158.267         22.7973 
        1.41742         157.208         22.5645 
        1.42355         156.463         22.3345 
         1.4297         155.474          22.107 
        1.43585          154.62         21.8828 
        1.44198         153.829         21.6626 
        1.44809         153.167         21.4459 
        1.45423         152.317         21.2313 
        1.46036         151.224           21.02 
        1.46649         150.169         20.8116 
        1.47263         149.304         20.6058 
        1.47877         148.618          20.403 
        1.48491         147.135         20.2025 
        1.49104         147.149         20.0051 
        1.49718          145.66         19.8103 
        1.50333         145.092         19.6177 
        1.50947         144.452         19.4281 
         1.5156         143.467         19.2413 
        1.52172         142.665          19.057 
        1.52787         141.557         18.8747 
          1.534         141.137          18.695 
        1.54013         140.234         18.5179 
        1.54627         139.501         18.3428 
        1.55241         138.528         18.1699 
        1.55855         137.758         17.9994 
        1.56467         136.945         17.8317 
         1.5708         136.126         17.6656 
        1.57695          135.64         17.5014 
        1.58308         134.924         17.3397 
        1.58922         134.283         17.1799 
        1.59535          133.18         17.0222 
         1.6015         132.788         16.8662 
        1.60764         131.993         16.7123 
        1.61376          131.15         16.5608 
        1.61989         130.362          16.411 
        1.62604         129.484         16.2627 
        1.63218         129.169         16.1164 
        1.63831         128.164         15.9722 
        1.64444         127.668         15.8297 
        1.65059         127.049         15.6886 
        1.65673         125.873         15.5494 
        1.66285         125.598         15.4123 
        1.66898         124.758         15.2768 
        1.67512         124.413         15.1427 
        1.68127         123.343           15.01 
         1.6874         122.401         14.8793 
        1.69353         122.188         14.7502 
        1.69967         121.462         14.6223 
        1.70581         120.709          14.496 
        1.71193         120.039         14.3716 
        1.71806         119.516         14.2485 
        1.72421         118.734         14.1265 
        1.73035         118.599         14.0062 
        1.73649         117.694         13.8872 
        1.74262         116.828         13.7698 
        1.74876         116.495         13.6536 
        1.75489          115.57         13.5391 
        1.76101         114.862         13.4258 
        1.76715         114.392         13.3137 
        1.77329         114.096         13.2028 
        1.77943         113.048         13.0931 
        1.78557          112.66         12.9848 
        1.79171         111.837         12.8777 
        1.79785         111.266         12.7718 
        1.80399         110.575         12.6671 
        1.81012         110.118         12.5638 
        1.81625         109.548         12.4616 
        1.82239         109.176         12.3604 
        1.82853          108.36         12.2604 
        1.83466         107.676         12.1616 
        1.84078         107.317          12.064 
        1.84692         106.443         11.9673 
        1.85306         106.174         11.8716 
         1.8592         105.486          11.777 
        1.86533         104.669         11.6836 
        1.87147         104.276          11.591 
        1.87761         103.655         11.4994 
        1.88375         102.912         11.4089 
        1.88988         102.587         11.3195 
        1.89601          101.94          11.231 
        1.90215         101.433         11.1434 
        1.90829           100.9         11.0567 
        1.91442         100.403          10.971 
        1.92056         99.7116         10.8862 
         1.9267           99.46         10.8023 
        1.93284          98.867         10.7192 
        1.93897         98.2661         10.6371 
        1.94509         97.8436         10.5561 
        1.95123         97.2886         10.4757 
        1.95737          96.777         10.3961 
        1.96349         96.2306         10.3176 
        1.96964         95.4476         10.2396 
        1.97578         95.0343         10.1624 
        1.98192         94.8789         10.0861 
        1.98805         94.0205         10.0107 
        1.99419         93.7799         9.93595 
        2.00033         93.1566         9.86198 
        2.00647          92.787         9.78877 
         2.0126         92.1829         9.71644 
        2.01874         91.5853         9.64473 
        2.02488         91.2259         9.57369 
        2.03101         90.5387         9.50349 
        2.03714         90.0335         9.43406 
        2.04328         89.7607         9.36525 
        2.04941           89.25         9.29719 
        2.05554         88.7361         9.22985 
        2.06167         88.3301         9.16308 
        2.06781         87.7326         9.09697 
        2.07396         87.3305         9.03142 
        2.08009         87.0611         8.96663 
        2.08622         86.4522         8.90254 
        2.09237         85.9962         8.83896 
        2.09851         85.6055         8.77599 
        2.10464         85.1333         8.71374 
        2.11077         84.7949         8.65216 
        2.11691         84.4182         8.59105 
        2.12305         83.6902         8.53052 
        2.12918         83.2522         8.47073 
        2.13531         83.0135          8.4115 
        2.14145         82.2553          8.3527 
         2.1476         81.8676          8.2944 
        2.15372         81.6283         8.23695 
        2.15985         81.2002         8.17998 
        2.16599          80.692         8.12339 
        2.17213          80.287         8.06741 
        2.17827          79.893         8.01196 
         2.1844         79.3991         7.95708 
        2.19054         79.2198          7.9027 
        2.19666         78.6928         7.84891 
         2.2028         78.3829         7.79557 
        2.20893         77.8611          7.7427 
        2.21508         77.4794         7.69027 
        2.22122         77.0662          7.6383 
        2.22736         76.7168         7.58693 
        2.23349         76.3237         7.53604 
        2.23962         75.9277         7.48559 
        2.24577         75.5886         7.43556 
         2.2519         75.2276         7.38606 
        2.25802         74.7599         7.33709 
        2.26417         74.3349         7.28843 
        2.27031         74.0607         7.24016 
        2.27644         73.5652         7.19247 
        2.28257         73.1528         7.14522 
        2.28872         72.8793          7.0983 
        2.29486         72.3138         7.05182 
        2.30099         71.9552         7.00584 
        2.30712         71.7596         6.96026 
        2.31326         71.4006           6.915 
         2.3194         70.9781         6.87018 
        2.32553         70.6043         6.82583 
        2.33166         70.3047         6.78188 
         2.3378         69.7626         6.73827 
        2.34394         69.4773         6.69502 
        2.35007         69.1361         6.65222 
        2.35619         68.8257         6.60984 
        2.36233         68.4654         6.56773 
        2.36848         68.1113          6.5259 
        2.37462         67.6347         6.48452 
        2.38075         67.5106         6.44354 
        2.38689         67.0457         6.40289 
        2.39303         66.6842         6.36259 
        2.39916         66.3392         6.32268 
        2.40529         66.1798         6.28311 
        2.41143         65.6955         6.24386 
        2.41757         65.4317         6.20492 
         2.4237         65.1573         6.16639 
        2.42983         64.7304         6.12819 
        2.43598         64.4187         6.09021 
        2.44211         64.1495         6.05262 
        2.44823         63.8066         6.01543 
        2.45437         63.3339         5.97846 
        2.46052         63.1127         5.94176 
        2.46665         62.8806         5.90543 
        2.47279         62.4598         5.86943 
        2.47892         62.2115          5.8337 
        2.48507         61.8047         5.79823 
         2.4912         61.5487         5.76313 
