# k  (h/Mpc)    P(k)  (Mpc/h)^3    P_linear(k)  (Mpc/h)^3
     0.00783031         11560.6         11744.5 
       0.013688         14335.2         14253.3 
       0.019231         14240.2         14230.1 
      0.0249154         12772.9         13011.6 
      0.0312784         11093.6           11197 
      0.0375637         9553.24         9553.06 
      0.0433917         8254.39         8381.75 
      0.0492413         7495.73         7547.15 
      0.0555754         6723.46         6910.47 
      0.0619321         6398.89          6393.2 
       0.067871          5767.3         5908.15 
      0.0738098         5252.83         5376.21 
      0.0800417         4637.66         4784.56 
      0.0862327         4147.45         4218.47 
      0.0921407         3751.55         3750.95 
      0.0982031         3357.73         3374.42 
       0.104506         3162.41         3092.93 
       0.110769         2948.69         2897.16 
       0.116806         2779.24         2750.21 
       0.122832         2647.02         2609.98 
       0.129052          2441.9         2449.19 
       0.135211         2283.11         2269.21 
       0.141259         2148.81         2082.97 
       0.147318         1999.06         1904.29 
       0.153489         1826.12         1746.08 
       0.159709          1725.7         1619.07 
       0.165845         1660.18         1524.52 
       0.171974         1572.72         1452.47 
       0.178125         1502.46         1391.45 
       0.184229         1441.08         1331.91 
        0.19034         1347.89         1267.15 
       0.196428         1313.27         1196.51 
       0.202534         1258.47         1122.76 
       0.208729         1189.98         1050.35 
       0.214876         1129.48         985.769 
       0.220989         1090.81         931.382 
       0.227147         1040.51         886.491 
        0.23329         1000.61         849.379 
       0.239377          981.47          816.95 
       0.245482         917.536          785.71 
       0.251667         909.307         753.291 
       0.257832         873.206         719.614 
       0.263955          842.29         685.593 
       0.270079         810.339         652.395 
        0.27624         799.505          621.32 
       0.282372         766.084         593.616 
        0.28843          751.73         569.551 
       0.294538         714.231         548.147 
       0.300721         710.811         528.463 
        0.30691         679.092         509.809 
       0.313033         665.617         491.648 
       0.319153         647.681         473.526 
       0.325316         627.668         455.354 
        0.33145         610.199         437.727 
       0.337538          601.23         421.062 
       0.343633         583.083         405.522 
       0.349808          562.89         391.049 
       0.355968         558.654         377.784 
       0.362074         549.431         365.569 
       0.368217         533.772         353.917 
       0.374374         511.361         342.654 
       0.380519         509.081         331.673 
       0.386598         495.863          321.04 
       0.392688         493.103         310.691 
        0.39888         478.663         300.561 
       0.405048         469.089         290.963 
       0.411186         461.199         281.955 
       0.417313         452.235         273.471 
       0.423458         443.907         265.428 
       0.429607         436.056         257.765 
       0.435692         425.466         250.473 
       0.441815         421.968         243.371 
       0.447964         413.229         236.459 
       0.454126         402.762         229.744 
       0.460267         396.287         223.277 
       0.466387         391.805         217.083 
        0.47254          383.98         211.123 
       0.478662         382.966         205.449 
       0.484765         370.275         200.033 
       0.490885         366.675         194.824 
       0.497035         360.185         189.787 
       0.503198         354.421         184.914 
       0.509342         351.669         180.209 
       0.515458         347.743         175.673 
       0.521598         339.964         171.268 
       0.527764         334.252         166.996 
       0.533884         331.833         162.904 
           0.54         327.115         158.959 
       0.546137         325.662          155.14 
       0.552299         318.837         151.441 
       0.558452         316.989         147.877 
       0.564573         312.197         144.447 
       0.570708         306.494         141.117 
       0.576825         301.031         137.897 
       0.582926         298.812         134.783 
       0.589034         295.976          131.76 
       0.595184         293.135         128.812 
       0.601379         289.482         125.936 
       0.607522         284.807         123.175 
       0.613639         283.285         120.511 
       0.619772         276.773         117.921 
       0.625918         275.725         115.403 
       0.632068         271.487         112.958 
       0.638161         270.363         110.605 
         0.6443         265.764         108.303 
       0.650464         263.335         106.058 
       0.656582         261.546         103.894 
       0.662703         260.011          101.79 
       0.668861         255.301         99.7337 
       0.675024         252.478         97.7332 
       0.681124         251.217         95.8086 
       0.687237         248.181         93.9326 
       0.693381         244.467         92.0986 
       0.699536          242.49         90.3108 
       0.705665         240.644         88.5787 
       0.711789         238.232         86.8939 
       0.717957         236.871         85.2418 
        0.72409         234.234         83.6423 
       0.730186         231.604         82.0939 
       0.736317         229.127         80.5767 
       0.742472         227.993         79.0926 
       0.748622         225.901         77.6476 
        0.75476         223.931         76.2423 
       0.760888         221.107         74.8741 
       0.767043         221.041         73.5345 
       0.773185         218.402         72.2308 
       0.779291          214.42         70.9663 
       0.785407         213.924         69.7307 
       0.791564         211.771         68.5169 
       0.797719          209.27         67.3329 
       0.803834         208.104         66.1845 
       0.809972         206.772         65.0591 
       0.816124         206.533         63.9576 
       0.822261         203.645         62.8848 
       0.828378         201.856         61.8401 
       0.834502         201.466         60.8184 
       0.840667         198.504         59.8134 
       0.846816         196.993         58.8341 
       0.852925         196.237         57.8832 
       0.859047         194.326         56.9514 
       0.865192         192.426         56.0373 
       0.871341         190.788         55.1428 
       0.877463         189.452          54.272 
       0.883569         188.754         53.4224 
       0.889708         186.808         52.5868 
       0.895864         184.629         51.7671 
       0.902008          183.92         50.9667 
       0.908149         183.233         50.1839 
       0.914301         180.879         49.4164 
       0.920448         179.616         48.6658 
       0.926574         178.585         47.9335 
       0.932687         178.392          47.218 
       0.938823         176.117         46.5146 
       0.944975         174.647          45.824 
       0.951105         173.914         45.1501 
       0.957225          172.21         44.4909 
       0.963368         170.201         43.8427 
       0.969511         169.706         43.2076 
       0.975621          168.41         42.5885 
       0.981748         168.219           41.98 
       0.987916         166.304         41.3797 
        0.99406         164.881         40.7935 
        1.00019          164.78         40.2199 
        1.00632         163.198          39.658 
        1.01246         162.151          39.106 
        1.01859         161.387         38.5655 
        1.02471         159.766         38.0359 
        1.03085         158.121         37.5145 
        1.03698          157.53         37.0041 
        1.04314         156.134          36.501 
        1.04929           155.2         36.0086 
        1.05541         154.803         35.5272 
        1.06154         153.518         35.0535 
        1.06769         153.395         34.5878 
        1.07382         151.958         34.1321 
        1.07993          150.65         33.6857 
        1.08607          149.86         33.2455 
        1.09222         149.269         32.8127 
        1.09836         147.931         32.3883 
        1.10449         146.579         31.9718 
        1.11063         145.464         31.5623 
        1.11677         145.249         31.1602 
         1.1229         143.874         30.7658 
        1.12903         143.187         30.3779 
        1.13518         142.781         29.9965 
        1.14131          141.34         29.6218 
        1.14745         140.876         29.2538 
        1.15359         139.867          28.892 
        1.15973         139.331         28.5362 
        1.16584         137.811          28.188 
        1.17197         137.303         27.8452 
        1.17811         136.559         27.5071 
        1.18424         135.886         27.1755 
        1.19038         135.421         26.8486 
        1.19652         134.317         26.5271 
        1.20267         133.651         26.2109 
        1.20881         132.493            25.9 
        1.21495         131.959         25.5947 
        1.22108         131.273         25.2943 
         1.2272         130.057         24.9995 
        1.23334          129.58         24.7088 
        1.23949         128.547          24.422 
        1.24562         128.003         24.1406 
        1.25174         126.788          23.864 
        1.25789         126.316          23.591 
        1.26402         125.494         23.3228 
        1.27014          124.76         23.0594 
        1.27628         124.209         22.7994 
        1.28244         123.694         22.5428 
        1.28858         123.174         22.2906 
        1.29471         121.786         22.0428 
        1.30084          121.47          21.799 
        1.30697         120.588         21.5586 
        1.31312         120.216         21.3214 
        1.31925         119.193         21.0886 
        1.32537         118.687         20.8595 
        1.33151         117.578          20.633 
        1.33765         117.265           20.41 
        1.34378         116.565         20.1907 
        1.34992         116.286         19.9746 
        1.35606         115.561         19.7611 
         1.3622         114.597         19.5512 
        1.36833         113.997         19.3448 
        1.37445         113.321         19.1415 
        1.38059         112.835         18.9405 
        1.38675         112.044          18.742 
        1.39288           111.7         18.5471 
        1.39901         111.213         18.3551 
        1.40515          110.33         18.1653 
         1.4113         109.541         17.9784 
        1.41742         109.223         17.7948 
        1.42355         108.458         17.6134 
         1.4297         107.946          17.434 
        1.43585         107.024         17.2572 
        1.44198         106.815         17.0836 
        1.44809          106.06         16.9126 
        1.45423         105.456         16.7434 
        1.46036         105.171         16.5768 
        1.46649         104.387         16.4124 
        1.47263         103.834         16.2502 
        1.47877         103.546         16.0902 
        1.48491          102.48         15.9321 
        1.49104         102.328         15.7764 
        1.49718         101.497         15.6228 
        1.50333         101.104         15.4709 
        1.50947         100.615         15.3214 
         1.5156         99.9314         15.1741 
        1.52172         99.3439         15.0287 
        1.52787           98.98          14.885 
          1.534         98.3239         14.7433 
        1.54013         97.7694         14.6036 
        1.54627         97.4165         14.4655 
        1.55241         96.7308         14.3291 
        1.55855         96.3218         14.1947 
        1.56467         95.9532         14.0624 
         1.5708         95.2233         13.9314 
        1.57695          95.148         13.8019 
        1.58308         94.2084         13.6744 
        1.58922         94.0715         13.5484 
        1.59535         93.4745          13.424 
         1.6015         92.9182          13.301 
        1.60764         92.4335         13.1797 
        1.61376         92.2554         13.0602 
        1.61989         91.4531          12.942 
        1.62604         91.2283         12.8251 
        1.63218         90.7085         12.7097 
        1.63831         89.8894          12.596 
        1.64444         89.6667         12.4836 
        1.65059         89.1802         12.3724 
        1.65673         88.4397         12.2626 
        1.66285         88.2704         12.1545 
        1.66898         87.7197         12.0476 
        1.67512         87.2461         11.9418 
        1.68127         86.8422         11.8372 
         1.6874         86.2969         11.7341 
        1.69353         85.8252         11.6323 
        1.69967         85.4021         11.5314 
        1.70581          85.122         11.4318 
        1.71193           84.81         11.3337 
        1.71806         84.1896         11.2366 
        1.72421          83.684         11.1405 
        1.73035         83.3035         11.0455 
        1.73649         82.8744         10.9517 
        1.74262         82.4131         10.8591 
        1.74876          82.128         10.7675 
        1.75489         81.4409         10.6772 
        1.76101         81.2364         10.5879 
        1.76715         80.6667         10.4995 
        1.77329         80.4175          10.412 
        1.77943         79.7893         10.3255 
        1.78557         79.6741         10.2401 
        1.79171         79.0328         10.1556 
        1.79785         78.6567         10.0721 
        1.80399         78.3744         9.98953 
        1.81012          78.073         9.90801 
        1.81625         77.4833         9.82744 
        1.82239         77.2247         9.74765 
        1.82853         76.9127         9.66879 
        1.83466         76.4444         9.59088 
        1.84078         76.1959         9.51391 
        1.84692         75.5628         9.43766 
        1.85306         75.1935         9.36215 
         1.8592         74.8508         9.28759 
        1.86533         74.4781         9.21389 
        1.87147         73.9609          9.1409 
        1.87761         73.7357         9.06867 
        1.88375         73.3054          8.9973 
        1.88988         72.9863         8.92678 
        1.89601         72.5686         8.85698 
        1.90215         72.2503         8.78788 
        1.90829         71.9074         8.71954 
        1.91442         71.5643         8.65193 
        1.92056         70.9801          8.5851 
         1.9267         70.8417         8.51891 
        1.93284         70.3403         8.45337 
        1.93897         70.0073         8.38866 
        1.94509         69.7402         8.32476 
        1.95123         69.3463         8.26137 
        1.95737         69.0809         8.19859 
        1.96349         68.5352         8.13663 
        1.96964         68.3433         8.07513 
        1.97578         68.0403         8.01425 
        1.98192          67.719         7.95412 
        1.98805         67.3631         7.89459 
        1.99419         66.9079         7.83568 
        2.00033         66.6684         7.77734 
        2.00647         66.3724         7.71961 
         2.0126         65.8853         7.66257 
        2.01874         65.5338         7.60602 
        2.02488         65.3098         7.54999 
        2.03101         65.0558         7.49463 
        2.03714         64.6085         7.43988 
        2.04328         64.3886         7.38562 
        2.04941         64.0327         7.33194 
        2.05554         63.7899         7.27883 
        2.06167         63.3854         7.22618 
        2.06781         63.0787         7.17405 
        2.07396         62.7226         7.12235 
        2.08009         62.5251         7.07125 
        2.08622         62.2301         7.02072 
        2.09237         61.8312         6.97057 
        2.09851         61.6902         6.92091 
        2.10464         61.2444         6.87182 
        2.11077         60.9167         6.82326 
        2.11691         60.6344         6.77507 
        2.12305         60.3768         6.72733 
        2.12918         60.1071         6.68018 
        2.13531         59.7051         6.63347 
        2.14145         59.4442          6.5871 
         2.1476         59.2142         6.54112 
        2.15372         58.9196         6.49581 
        2.15985         58.5942         6.45089 
        2.16599         58.3016         6.40626 
        2.17213          58.074         6.36211 
        2.17827         57.7648         6.31838 
         2.1844         57.4041         6.27511 
        2.19054         57.1492         6.23222 
        2.19666         56.8614          6.1898 
         2.2028         56.7984         6.14774 
        2.20893         56.4601         6.10605 
        2.21508         56.0953         6.06469 
        2.22122         55.8898         6.02371 
        2.22736         55.6358          5.9832 
        2.23349         55.3043         5.94306 
        2.23962         54.9667         5.90328 
        2.24577         54.6902         5.86383 
         2.2519         54.4178         5.82479 
        2.25802         54.2823         5.78617 
        2.26417         53.8745         5.74779 
        2.27031         53.6974         5.70973 
        2.27644         53.5065         5.67212 
        2.28257         53.1515         5.63486 
        2.28872           52.87         5.59786 
        2.29486         52.6752          5.5612 
        2.30099         52.4176         5.52494 
        2.30712         52.2198           5.489 
        2.31326         51.8858         5.45331 
         2.3194         51.6117         5.41796 
        2.32553         51.3442         5.38298 
        2.33166         51.0932         5.34832 
         2.3378         50.8659         5.31393 
        2.34394           50.57         5.27982 
        2.35007         50.2943         5.24607 
        2.35619         50.1289         5.21265 
        2.36233         49.9916         5.17944 
        2.36848         49.6611         5.14645 
        2.37462         49.4096         5.11382 
        2.38075         49.2461          5.0815 
        2.38689         48.9635         5.04944 
        2.39303         48.7377         5.01766 
        2.39916         48.5497         4.98618 
        2.40529         48.3285         4.95498 
        2.41143         48.0891         4.92403 
        2.41757         47.7998         4.89332 
         2.4237          47.659         4.86293 
        2.42983         47.3354         4.83281 
        2.43598         47.1194         4.80286 
        2.44211         46.9699         4.77322 
        2.44823         46.6894         4.74389 
        2.45437         46.4606         4.71473 
        2.46052         46.1784         4.68579 
        2.46665         46.0175         4.65714 
        2.47279          45.806         4.62874 
        2.47892         45.6367         4.60057 
        2.48507         45.3541          4.5726 
         2.4912         45.2227         4.54492 
