# k  (h/Mpc)    P(k)  (Mpc/h)^3    P_linear(k)  (Mpc/h)^3
     0.00783031         69.5322         77.5858 
       0.013688         84.9675         94.3563 
       0.019231         85.2537         94.2906 
      0.0249154         77.9442         86.2623 
      0.0312784         67.3166          74.259 
      0.0375637         57.5437         63.3705 
      0.0433917         50.4648         55.6085 
      0.0492413         45.4592         50.0765 
      0.0555754         41.5668         45.8558 
      0.0619321         38.5159         42.4259 
       0.067871         35.5274         39.2089 
      0.0738098         32.3246         35.6801 
      0.0800417         28.7646         31.7546 
      0.0862327         25.3957         27.9983 
      0.0921407         22.5985         24.8959 
      0.0982031         20.3201         22.3972 
       0.104506         18.6558         20.5291 
       0.110769         17.4602         19.2299 
       0.116806         16.5418         18.2547 
       0.122832         15.7128          17.324 
       0.129052         14.7256         16.2569 
       0.135211         13.6407         15.0624 
       0.141259         12.5404         13.8263 
       0.147318         11.4819         12.6404 
       0.153489          10.522         11.5903 
       0.159709         9.75582         10.7473 
       0.165845         9.20413         10.1197 
       0.171974         8.74405         9.64145 
       0.178125         8.37806         9.23641 
       0.184229         8.02506         8.84119 
        0.19034         7.61742         8.41137 
       0.196428           7.203         7.94248 
       0.202534         6.77727         7.45294 
       0.208729         6.33136         6.97227 
       0.214876         5.93349         6.54362 
       0.220989         5.62431         6.18262 
       0.227147         5.33612         5.88463 
        0.23329         5.11239         5.63828 
       0.239377         4.91753         5.42302 
       0.245482          4.7258         5.21564 
       0.251667          4.5397         5.00045 
       0.257832         4.33226          4.7769 
       0.263955          4.1309         4.55108 
       0.270079         3.93305         4.33071 
        0.27624         3.75287         4.12443 
       0.282372          3.5854         3.94053 
        0.28843         3.43377         3.78079 
       0.294538         3.30504          3.6387 
       0.300721         3.19169         3.50804 
        0.30691         3.07367         3.38422 
       0.313033         2.96431         3.26366 
       0.319153         2.84549         3.14336 
       0.325316         2.75097         3.02274 
        0.33145         2.64286         2.90573 
       0.337538         2.54197          2.7951 
       0.343633         2.44565         2.69195 
       0.349808         2.36086         2.59587 
       0.355968         2.28254         2.50782 
       0.362074          2.2067         2.42674 
       0.368217         2.13661         2.34938 
       0.374374         2.06415         2.27462 
       0.380519         2.00251         2.20172 
       0.386598         1.93991         2.13114 
       0.392688         1.87995         2.06245 
        0.39888         1.81658          1.9952 
       0.405048          1.7594         1.93149 
       0.411186          1.7059         1.87169 
       0.417313         1.65253         1.81537 
       0.423458         1.60669         1.76198 
       0.429607         1.55774         1.71111 
       0.435692         1.51362         1.66271 
       0.441815         1.47111         1.61556 
       0.447964         1.43289         1.56968 
       0.454126         1.38901          1.5251 
       0.460267         1.34929         1.48218 
       0.466387         1.31141         1.44106 
        0.47254         1.27617         1.40149 
       0.478662         1.24327         1.36383 
       0.484765         1.20907         1.32787 
       0.490885         1.17872         1.29329 
       0.497035         1.15125         1.25986 
       0.503198         1.11979         1.22751 
       0.509342         1.09329         1.19628 
       0.515458         1.06376         1.16617 
       0.521598         1.03763         1.13693 
       0.527764          1.0101         1.10857 
       0.533884        0.988533          1.0814 
           0.54        0.964074         1.05521 
       0.546137        0.941816         1.02986 
       0.552299        0.918821         1.00531 
       0.558452          0.8959        0.981649 
       0.564573        0.876369        0.958882 
       0.570708        0.856356        0.936776 
       0.576825        0.836421        0.915402 
       0.582926        0.819059        0.894729 
       0.589034        0.797728        0.874663 
       0.595184        0.780578         0.85509 
       0.601379        0.763808        0.836004 
       0.607522         0.74836        0.817676 
       0.613639        0.733351         0.79999 
       0.619772         0.71562        0.782796 
       0.625918        0.700987        0.766081 
       0.632068        0.687174        0.749847 
       0.638161        0.672201        0.734228 
         0.6443        0.658329        0.718945 
       0.650464        0.643661        0.704045 
       0.656582        0.631478        0.689679 
       0.662703        0.619101        0.675714 
       0.668861         0.60778        0.662063 
       0.675024        0.594816        0.648783 
       0.681124        0.581923        0.636007 
       0.687237        0.571917        0.623553 
       0.693381        0.561174        0.611379 
       0.699536        0.548577        0.599511 
       0.705665        0.538352        0.588013 
       0.711789         0.52943        0.576829 
       0.717957        0.518425        0.565862 
        0.72409        0.509445        0.555244 
       0.730186         0.49944        0.544965 
       0.736317        0.491622        0.534893 
       0.742472        0.482267        0.525041 
       0.748622         0.47331        0.515449 
        0.75476        0.463983         0.50612 
       0.760888        0.455684        0.497038 
       0.767043        0.449562        0.488145 
       0.773185        0.440469         0.47949 
       0.779291        0.432713        0.471097 
       0.785407        0.425567        0.462894 
       0.791564        0.418307        0.454837 
       0.797719        0.411433        0.446977 
       0.803834        0.404659        0.439354 
       0.809972        0.397467        0.431883 
       0.816124        0.390664        0.424571 
       0.822261         0.38379        0.417449 
       0.828378        0.378019        0.410514 
       0.834502        0.372146        0.403732 
       0.840667        0.365331         0.39706 
       0.846816        0.359614         0.39056 
       0.852925        0.354686        0.384247 
       0.859047        0.348993        0.378062 
       0.865192        0.342776        0.371994 
       0.871341        0.337229        0.366056 
       0.877463        0.332918        0.360275 
       0.883569        0.327232        0.354635 
       0.889708        0.322291        0.349088 
       0.895864        0.317122        0.343647 
       0.902008        0.312291        0.338334 
       0.908149          0.3074        0.333137 
       0.914301         0.30205        0.328042 
       0.920448        0.297995        0.323059 
       0.926574         0.29338        0.318198 
       0.932687        0.288841        0.313448 
       0.938823        0.285502        0.308779 
       0.944975         0.28115        0.304195 
       0.951105        0.277127        0.299721 
       0.957225        0.273619        0.295345 
       0.963368        0.269321        0.291042 
       0.969511        0.265059        0.286826 
       0.975621         0.26131        0.282716 
       0.981748        0.258389        0.278677 
       0.987916        0.254497        0.274692 
        0.99406        0.250723        0.270801 
        1.00019        0.247611        0.266993 
        1.00632        0.243631        0.263262 
        1.01246        0.240112        0.259598 
        1.01859        0.237292         0.25601 
        1.02471        0.234064        0.252495 
        1.03085        0.231411        0.249034 
        1.03698        0.227826        0.245645 
        1.04314        0.224845        0.242306 
        1.04929        0.221679        0.239037 
        1.05541        0.219185        0.235841 
        1.06154        0.215955        0.232697 
        1.06769        0.212928        0.229605 
        1.07382        0.210363         0.22658 
        1.07993        0.207422        0.223617 
        1.08607        0.205406        0.220695 
        1.09222        0.202349        0.217822 
        1.09836        0.200249        0.215004 
        1.10449        0.197672         0.21224 
        1.11063        0.194709        0.209521 
        1.11677        0.192196        0.206852 
         1.1229        0.190049        0.204234 
        1.12903        0.187562        0.201659 
        1.13518        0.185471        0.199126 
        1.14131        0.183019        0.196639 
        1.14745        0.180298        0.194196 
        1.15359        0.178471        0.191795 
        1.15973         0.17599        0.189433 
        1.16584         0.17434        0.187122 
        1.17197        0.172187        0.184846 
        1.17811        0.170356        0.182601 
        1.18424        0.168571          0.1804 
        1.19038        0.166253         0.17823 
        1.19652        0.163914        0.176096 
        1.20267        0.162507        0.173997 
        1.20881        0.160594        0.171933 
        1.21495        0.158909        0.169906 
        1.22108        0.156787        0.167912 
         1.2272        0.155236        0.165955 
        1.23334        0.153307        0.164025 
        1.23949        0.151603        0.162121 
        1.24562         0.14991        0.160253 
        1.25174        0.148306        0.158418 
        1.25789        0.146899        0.156605 
        1.26402        0.144782        0.154825 
        1.27014        0.143404        0.153076 
        1.27628        0.141893         0.15135 
        1.28244        0.140026        0.149647 
        1.28858         0.13867        0.147973 
        1.29471        0.137483        0.146328 
        1.30084        0.135662        0.144709 
        1.30697        0.134245        0.143113 
        1.31312        0.132495        0.141539 
        1.31925        0.131225        0.139993 
        1.32537        0.129977        0.138473 
        1.33151        0.128667        0.136969 
        1.33765        0.127338        0.135488 
        1.34378        0.125869        0.134033 
        1.34992        0.124522        0.132598 
        1.35606         0.12326        0.131181 
         1.3622        0.122044        0.129787 
        1.36833         0.12073        0.128417 
        1.37445        0.119231        0.127068 
        1.38059         0.11817        0.125734 
        1.38675        0.117307        0.124416 
        1.39288        0.115992        0.123122 
        1.39901        0.114756        0.121847 
        1.40515        0.113801        0.120588 
         1.4113        0.112347        0.119347 
        1.41742        0.111292        0.118128 
        1.42355        0.110359        0.116924 
         1.4297        0.109131        0.115733 
        1.43585        0.108105        0.114559 
        1.44198        0.107147        0.113407 
        1.44809        0.105981        0.112272 
        1.45423        0.105029        0.111148 
        1.46036        0.104005        0.110043 
        1.46649        0.103208        0.108951 
        1.47263         0.10207        0.107874 
        1.47877        0.100877        0.106812 
        1.48491        0.100084        0.105763 
        1.49104       0.0989791        0.104729 
        1.49718       0.0979785        0.103709 
        1.50333       0.0973412        0.102701 
        1.50947        0.096244        0.101709 
         1.5156       0.0953671        0.100731 
        1.52172       0.0944944       0.0997658 
        1.52787       0.0936149       0.0988115 
          1.534       0.0926396       0.0978709 
        1.54013       0.0918339       0.0969436 
        1.54627       0.0911954       0.0960267 
        1.55241       0.0901612       0.0951216 
        1.55855       0.0892736       0.0942294 
        1.56467       0.0887678       0.0933512 
         1.5708       0.0878595       0.0924818 
        1.57695       0.0869981       0.0916221 
        1.58308       0.0861828       0.0907755 
        1.58922       0.0854914        0.089939 
        1.59535       0.0847137       0.0891133 
         1.6015       0.0838811        0.088297 
        1.60764       0.0832425       0.0874913 
        1.61376       0.0824152       0.0866979 
        1.61989       0.0817763       0.0859137 
        1.62604       0.0811273       0.0851375 
        1.63218       0.0803865       0.0843714 
        1.63831       0.0796673       0.0836166 
        1.64444       0.0790112       0.0828707 
        1.65059       0.0783528       0.0821321 
        1.65673       0.0777005       0.0814034 
        1.66285       0.0771391       0.0806855 
        1.66898       0.0764184       0.0799761 
        1.67512       0.0756684       0.0792739 
        1.68127       0.0749936       0.0785795 
         1.6874       0.0744738        0.077895 
        1.69353       0.0736849        0.077219 
        1.69967       0.0733444       0.0765495 
        1.70581       0.0724534       0.0758882 
        1.71193       0.0719376       0.0752373 
        1.71806       0.0712833       0.0745927 
        1.72421       0.0709212       0.0739543 
        1.73035       0.0701717       0.0733242 
        1.73649       0.0697307       0.0727016 
        1.74262       0.0691019       0.0720867 
        1.74876        0.068509       0.0714786 
        1.75489       0.0680741       0.0708788 
        1.76101       0.0674115        0.070286 
        1.76715       0.0668459       0.0696992 
        1.77329       0.0662513       0.0691185 
        1.77943        0.065817       0.0685441 
        1.78557       0.0653329       0.0679771 
        1.79171       0.0648176       0.0674165 
        1.79785       0.0643066       0.0668621 
        1.80399       0.0637662       0.0663141 
        1.81012       0.0633018       0.0657729 
        1.81625       0.0627712       0.0652381 
        1.82239       0.0622591       0.0647084 
        1.82853       0.0617924       0.0641849 
        1.83466       0.0613226       0.0636677 
        1.84078       0.0608567       0.0631567 
        1.84692        0.060321       0.0626506 
        1.85306        0.059958       0.0621493 
         1.8592        0.059396       0.0616544 
        1.86533       0.0590457       0.0611651 
        1.87147       0.0585399       0.0606806 
        1.87761       0.0582208       0.0602011 
        1.88375       0.0577634       0.0597273 
        1.88988       0.0572374       0.0592592 
        1.89601       0.0568405       0.0587959 
        1.90215       0.0563973       0.0583371 
        1.90829       0.0559271       0.0578835 
        1.91442         0.05566       0.0574347 
        1.92056       0.0551537        0.056991 
         1.9267       0.0547206       0.0565516 
        1.93284        0.054339       0.0561166 
        1.93897       0.0539476        0.055687 
        1.94509       0.0536144       0.0552628 
        1.95123       0.0531648        0.054842 
        1.95737       0.0528077       0.0544252 
        1.96349       0.0523848       0.0540139 
        1.96964        0.052028       0.0536057 
        1.97578         0.05164       0.0532015 
        1.98192       0.0513295       0.0528023 
        1.98805       0.0509351       0.0524072 
        1.99419       0.0505161       0.0520161 
        2.00033       0.0501681       0.0516288 
        2.00647       0.0499471       0.0512456 
         2.0126       0.0494596        0.050867 
        2.01874       0.0492275       0.0504916 
        2.02488       0.0488619       0.0501196 
        2.03101       0.0485217       0.0497521 
        2.03714       0.0480768       0.0493887 
        2.04328        0.047895       0.0490284 
        2.04941       0.0474246       0.0486721 
        2.05554       0.0472165       0.0483196 
        2.06167       0.0469076       0.0479701 
        2.06781       0.0465148        0.047624 
        2.07396       0.0462301       0.0472808 
        2.08009       0.0459097       0.0469416 
        2.08622       0.0456237       0.0466061 
        2.09237        0.045302       0.0462733 
        2.09851       0.0449849       0.0459436 
        2.10464       0.0447475       0.0456177 
        2.11077       0.0443866       0.0452953 
        2.11691       0.0440667       0.0449754 
        2.12305       0.0438017       0.0446585 
        2.12918       0.0435586       0.0443455 
        2.13531       0.0431932       0.0440354 
        2.14145       0.0428912       0.0437276 
         2.1476       0.0426307       0.0434224 
        2.15372       0.0424295       0.0431216 
        2.15985        0.042072       0.0428234 
        2.16599       0.0417966       0.0425272 
        2.17213       0.0415482       0.0422341 
        2.17827       0.0412582       0.0419438 
         2.1844       0.0410645       0.0416565 
        2.19054       0.0407713       0.0413718 
        2.19666        0.040476       0.0410902 
         2.2028       0.0401966        0.040811 
        2.20893       0.0400155       0.0405342 
        2.21508       0.0397529       0.0402597 
        2.22122       0.0394496       0.0399877 
        2.22736       0.0392433       0.0397187 
        2.23349       0.0389832       0.0394523 
        2.23962       0.0388113       0.0391882 
        2.24577       0.0385107       0.0389263 
         2.2519       0.0382775       0.0386671 
        2.25802       0.0380366       0.0384108 
        2.26417       0.0377964        0.038156 
        2.27031        0.037523       0.0379033 
        2.27644       0.0372872       0.0376537 
        2.28257       0.0371186       0.0374063 
        2.28872       0.0368927       0.0371607 
        2.29486       0.0366985       0.0369174 
        2.30099       0.0364433       0.0366767 
        2.30712       0.0361302        0.036438 
        2.31326       0.0359588       0.0362011 
         2.3194       0.0358107       0.0359665 
        2.32553       0.0355557       0.0357343 
        2.33166       0.0354033       0.0355042 
         2.3378       0.0351716       0.0352759 
        2.34394       0.0349177       0.0350495 
        2.35007       0.0346879       0.0348254 
        2.35619       0.0344336       0.0346035 
        2.36233        0.034325       0.0343831 
        2.36848       0.0341753       0.0341641 
        2.37462       0.0339036       0.0339475 
        2.38075       0.0337073        0.033733 
        2.38689       0.0335167       0.0335201 
        2.39303       0.0333482       0.0333091 
        2.39916       0.0331292       0.0331002 
        2.40529       0.0329673       0.0328931 
        2.41143       0.0327313       0.0326876 
        2.41757       0.0325462       0.0324837 
         2.4237       0.0324191        0.032282 
        2.42983       0.0322443       0.0320821 
        2.43598       0.0320766       0.0318832 
        2.44211       0.0318264       0.0316864 
        2.44823        0.031668       0.0314918 
        2.45437       0.0314788       0.0312982 
        2.46052       0.0313107       0.0311061 
        2.46665        0.031093       0.0309159 
        2.47279        0.030922       0.0307274 
        2.47892       0.0307292       0.0305403 
        2.48507       0.0305614       0.0303547 
         2.4912       0.0304246       0.0301709 
