# k  (h/Mpc)    P(k)  (Mpc/h)^3    P_linear(k)  (Mpc/h)^3
     0.00783031         4488.33         4558.98 
       0.013688         5533.87         5535.44 
       0.019231         5522.37          5527.8 
      0.0249154         4994.82         5055.21 
      0.0312784         4330.29         4350.69 
      0.0375637         3717.24         3712.18 
      0.0433917         3232.96         3257.18 
      0.0492413         2926.23         2932.95 
      0.0555754         2647.93         2685.61 
      0.0619321         2494.41         2484.64 
       0.067871          2270.2         2296.16 
      0.0738098         2065.73         2089.46 
      0.0800417         1829.41         1859.54 
      0.0862327         1626.79         1639.54 
      0.0921407         1458.55         1457.85 
      0.0982031         1306.03         1311.51 
       0.104506         1217.78         1202.11 
       0.110769         1137.29         1126.03 
       0.116806          1070.5         1068.92 
       0.122832          1021.8         1014.42 
       0.129052          948.19         951.929 
       0.135211         881.811         881.978 
       0.141259             821         809.596 
       0.147318         758.257         740.148 
       0.153489         692.479         678.657 
       0.159709         648.347         629.294 
       0.165845         619.114         592.544 
       0.171974         584.198         564.543 
       0.178125         560.363         540.826 
       0.184229         538.427         517.684 
        0.19034         502.957         492.516 
       0.196428         485.416         465.059 
       0.202534         463.567         436.394 
       0.208729         434.156         408.248 
       0.214876         407.168         383.149 
       0.220989         391.846          362.01 
       0.227147         370.084         344.562 
        0.23329         355.586         330.137 
       0.239377         346.067         317.533 
       0.245482         325.464         305.391 
       0.251667         319.331          292.79 
       0.257832         307.013         279.701 
       0.263955         294.058         266.478 
       0.270079         281.765         253.574 
        0.27624         274.762         241.496 
       0.282372         263.522         230.728 
        0.28843         253.396         221.375 
       0.294538         242.918         213.055 
       0.300721         239.229         205.405 
        0.30691         228.356         198.154 
       0.313033         222.201         191.095 
       0.319153         212.464         184.052 
       0.325316          207.67         176.989 
        0.33145         199.932         170.137 
       0.337538          196.04          163.66 
       0.343633         189.112          157.62 
       0.349808          183.16         151.994 
       0.355968         179.301         146.839 
       0.362074         174.065         142.091 
       0.368217         169.181         137.562 
       0.374374         164.018         133.184 
       0.380519         160.472         128.916 
       0.386598         156.111         124.783 
       0.392688         153.325         120.761 
        0.39888          149.12         116.823 
       0.405048         145.492         113.093 
       0.411186         142.183         109.592 
       0.417313         138.525         106.294 
       0.423458          135.42         103.168 
       0.429607         132.045         100.189 
       0.435692         127.749         97.3551 
       0.441815         126.612         94.5944 
       0.447964         124.416         91.9079 
       0.454126         118.911         89.2979 
       0.460267          117.47         86.7845 
       0.466387         115.264         84.3769 
        0.47254         113.072         82.0601 
       0.478662         111.609          79.855 
       0.484765         108.404         77.7497 
       0.490885         106.425          75.725 
       0.497035          105.05         73.7673 
       0.503198         102.107         71.8735 
       0.509342         99.9718         70.0446 
       0.515458         98.4271         68.2815 
       0.521598         97.0384         66.5694 
       0.527764          95.415         64.9088 
       0.533884         93.8267         63.3182 
           0.54         91.9766         61.7848 
       0.546137         91.0075         60.3004 
       0.552299         89.5997          58.863 
       0.558452         87.3455         57.4775 
       0.564573         85.7717         56.1444 
       0.570708         84.6883         54.8501 
       0.576825         83.2869         53.5986 
       0.582926         81.6201         52.3882 
       0.589034         80.0066         51.2132 
       0.595184          79.048         50.0672 
       0.601379         78.0258         48.9496 
       0.607522         76.1226         47.8765 
       0.613639         75.9093          46.841 
       0.619772         74.1062         45.8342 
       0.625918         73.4611         44.8555 
       0.632068         72.5093          43.905 
       0.638161         71.4608         42.9905 
         0.6443         70.3882         42.0956 
       0.650464         69.4096         41.2232 
       0.656582         68.6373          40.382 
       0.662703         67.2636         39.5643 
       0.668861         66.4916          38.765 
       0.675024         65.6126         37.9875 
       0.681124         64.6311         37.2394 
       0.687237         63.5129         36.5102 
       0.693381         62.9564         35.7974 
       0.699536         61.8733         35.1025 
       0.705665          62.137         34.4292 
       0.711789         60.4361         33.7744 
       0.717957         59.9222         33.1323 
        0.72409         59.1036         32.5106 
       0.730186         58.1419         31.9087 
       0.736317         57.9193          31.319 
       0.742472         57.0297         30.7422 
       0.748622         56.5154         30.1805 
        0.75476         55.8197         29.6343 
       0.760888         54.9894         29.1025 
       0.767043         54.4153         28.5818 
       0.773185         53.7071         28.0751 
       0.779291         53.4233         27.5836 
       0.785407         52.8863         27.1033 
       0.791564         52.0771         26.6315 
       0.797719         51.2123         26.1713 
       0.803834         51.0807          25.725 
       0.809972         50.2583         25.2875 
       0.816124         49.6019         24.8594 
       0.822261         49.2603         24.4424 
       0.828378         48.8953         24.0364 
       0.834502          48.302         23.6392 
       0.840667         47.8596         23.2486 
       0.846816         47.1792          22.868 
       0.852925          46.785         22.4984 
       0.859047         46.1647         22.1362 
       0.865192         45.8591         21.7809 
       0.871341         45.6458         21.4332 
       0.877463         44.7279         21.0948 
       0.883569         44.4143         20.7645 
       0.889708          44.128         20.4398 
       0.895864         43.6983         20.1211 
       0.902008         43.3133         19.8101 
       0.908149          42.923         19.5058 
       0.914301         42.6862         19.2075 
       0.920448         42.0786         18.9157 
       0.926574         41.7506         18.6311 
       0.932687          41.376          18.353 
       0.938823         40.7755         18.0796 
       0.944975         40.6503         17.8112 
       0.951105          40.245         17.5492 
       0.957225         39.7462          17.293 
       0.963368         39.6845         17.0411 
       0.969511         39.3151         16.7942 
       0.975621         38.9855         16.5535 
       0.981748          38.486         16.3171 
       0.987916         38.2859         16.0837 
        0.99406         37.9999         15.8559 
        1.00019         37.5255         15.6329 
        1.00632         37.3404         15.4145 
        1.01246         37.0822         15.1999 
        1.01859         36.5605         14.9899 
        1.02471         36.5719          14.784 
        1.03085          36.206         14.5814 
        1.03698           35.73          14.383 
        1.04314         35.4452         14.1874 
        1.04929         35.2393          13.996 
        1.05541         34.8545         13.8089 
        1.06154         34.7718         13.6248 
        1.06769         34.4651         13.4438 
        1.07382         34.1997         13.2667 
        1.07993         34.0676         13.0932 
        1.08607         33.6141         12.9221 
        1.09222         33.5141         12.7539 
        1.09836         33.1776         12.5889 
        1.10449         32.9599          12.427 
        1.11063         32.5414         12.2678 
        1.11677         32.4235         12.1115 
         1.1229         32.3008         11.9582 
        1.12903         31.8519         11.8075 
        1.13518         31.7407         11.6592 
        1.14131         31.6429         11.5136 
        1.14745         31.2794         11.3705 
        1.15359         31.2074         11.2299 
        1.15973         30.8327         11.0916 
        1.16584         30.5643         10.9563 
        1.17197         30.5797         10.8231 
        1.17811         30.1951         10.6916 
        1.18424         29.9426         10.5628 
        1.19038          29.895         10.4357 
        1.19652         29.7161         10.3107 
        1.20267         29.4954         10.1878 
        1.20881         29.2578          10.067 
        1.21495         29.0566         9.94829 
        1.22108         28.8739         9.83155 
         1.2272         28.5606         9.71696 
        1.23334         28.4782         9.60395 
        1.23949         28.3061         9.49248 
        1.24562         28.1493         9.38311 
        1.25174         28.0087         9.27562 
        1.25789          27.785         9.16951 
        1.26402         27.6493         9.06526 
        1.27014         27.3543         8.96288 
        1.27628         27.2132          8.8618 
        1.28244         27.0862         8.76208 
        1.28858         26.9787         8.66405 
        1.29471         26.7941         8.56773 
        1.30084         26.6206         8.47298 
        1.30697         26.4176         8.37953 
        1.31312         26.1846         8.28735 
        1.31925         26.0998         8.19685 
        1.32537         25.9926          8.1078 
        1.33151         25.7781         8.01976 
        1.33765         25.7206         7.93308 
        1.34378         25.5698         7.84786 
        1.34992         25.2413         7.76384 
        1.35606         25.1718         7.68087 
         1.3622         25.0232         7.59927 
        1.36833         24.8729         7.51905 
        1.37445         24.8622         7.44004 
        1.38059         24.6668         7.36193 
        1.38675         24.4086         7.28475 
        1.39288         24.3701           7.209 
        1.39901         24.1641         7.13436 
        1.40515         24.0739         7.06061 
         1.4113         23.9392         6.98795 
        1.41742         23.7034         6.91658 
        1.42355         23.6753         6.84608 
         1.4297         23.5347         6.77636 
        1.43585         23.4832         6.70764 
        1.44198         23.2383         6.64014 
        1.44809         23.1459          6.5737 
        1.45423         23.0514         6.50793 
        1.46036         22.9707         6.44318 
        1.46649            22.8         6.37929 
        1.47263         22.6529         6.31621 
        1.47877         22.5643         6.25402 
        1.48491         22.4399         6.19257 
        1.49104         22.3912         6.13208 
        1.49718         22.1742         6.07235 
        1.50333         22.1228         6.01333 
        1.50947         22.0298         5.95521 
         1.5156         21.8397         5.89796 
        1.52172         21.6948         5.84145 
        1.52787         21.6974         5.78558 
          1.534         21.5087         5.73051 
        1.54013         21.3434         5.67621 
        1.54627         21.3057         5.62252 
        1.55241         21.1653         5.56953 
        1.55855         21.0474         5.51729 
        1.56467           20.97         5.46587 
         1.5708         20.9011         5.41496 
        1.57695         20.6893         5.36463 
        1.58308         20.7298         5.31505 
        1.58922         20.5647         5.26607 
        1.59535         20.4402         5.21773 
         1.6015         20.3455         5.16993 
        1.60764         20.2973         5.12276 
        1.61376         20.1586          5.0763 
        1.61989          19.997         5.03039 
        1.62604         19.9858         4.98494 
        1.63218         19.8457         4.94009 
        1.63831         19.8058         4.89589 
        1.64444         19.6463         4.85221 
        1.65059         19.5558         4.80897 
        1.65673         19.4907          4.7663 
        1.66285         19.3746         4.72427 
        1.66898         19.3183         4.68273 
        1.67512         19.2424         4.64162 
        1.68127         19.1063         4.60096 
         1.6874         19.0157         4.56088 
        1.69353         18.9653          4.5213 
        1.69967         18.8203          4.4821 
        1.70581         18.7487         4.44338 
        1.71193          18.652         4.40527 
        1.71806         18.5802         4.36752 
        1.72421         18.4891         4.33015 
        1.73035         18.4177         4.29325 
        1.73649         18.3214          4.2568 
        1.74262         18.2848          4.2208 
        1.74876         18.1769         4.18519 
        1.75489         18.0914         4.15007 
        1.76101         18.0104         4.11536 
        1.76715         17.9581           4.081 
        1.77329         17.8639           4.047 
        1.77943          17.758         4.01337 
        1.78557         17.7072         3.98017 
        1.79171         17.6518         3.94734 
        1.79785         17.5088         3.91488 
        1.80399         17.4431          3.8828 
        1.81012         17.4228         3.85111 
        1.81625         17.3119          3.8198 
        1.82239         17.2836         3.78878 
        1.82853         17.1272         3.75813 
        1.83466         17.0489         3.72785 
        1.84078         16.9469         3.69793 
        1.84692         16.9487         3.66829 
        1.85306         16.8432         3.63894 
         1.8592         16.7806         3.60996 
        1.86533         16.7172         3.58131 
        1.87147         16.6327         3.55294 
        1.87761         16.6027         3.52487 
        1.88375         16.4761         3.49713 
        1.88988         16.4439         3.46972 
        1.89601         16.3502         3.44259 
        1.90215         16.2766         3.41573 
        1.90829         16.2399         3.38917 
        1.91442         16.1666         3.36289 
        1.92056         16.0969         3.33691 
         1.9267         16.0324         3.31119 
        1.93284         15.9362         3.28571 
        1.93897         15.8802         3.26056 
        1.94509         15.8179         3.23572 
        1.95123         15.7382         3.21108 
        1.95737         15.6875         3.18668 
        1.96349         15.6203          3.1626 
        1.96964         15.5498          3.1387 
        1.97578         15.5002         3.11503 
        1.98192         15.3993         3.09166 
        1.98805         15.3723         3.06852 
        1.99419         15.2888         3.04562 
        2.00033         15.2247         3.02295 
        2.00647         15.1788         3.00051 
         2.0126         15.0816         2.97834 
        2.01874         15.0219         2.95636 
        2.02488         14.9728         2.93458 
        2.03101          14.949         2.91306 
        2.03714         14.8823         2.89178 
        2.04328          14.787         2.87069 
        2.04941         14.7139         2.84983 
        2.05554         14.7227         2.82919 
        2.06167         14.6363         2.80872 
        2.06781         14.5867         2.78846 
        2.07396         14.5347         2.76836 
        2.08009         14.4706          2.7485 
        2.08622         14.3831         2.72886 
        2.09237         14.3455         2.70937 
        2.09851         14.2893         2.69007 
        2.10464         14.2254         2.67099 
        2.11077         14.1583         2.65211 
        2.11691         14.1266         2.63338 
        2.12305          14.056         2.61483 
        2.12918         13.9928          2.5965 
        2.13531         13.9627         2.57834 
        2.14145         13.8766         2.56032 
         2.1476         13.8556         2.54245 
        2.15372         13.8004         2.52484 
        2.15985         13.7164         2.50738 
        2.16599         13.6898         2.49003 
        2.17213         13.6427         2.47287 
        2.17827         13.5987         2.45587 
         2.1844         13.5396         2.43905 
        2.19054         13.4656         2.42238 
        2.19666         13.4473         2.40589 
         2.2028         13.3958         2.38954 
        2.20893         13.3293         2.37334 
        2.21508         13.2688         2.35727 
        2.22122         13.2104         2.34134 
        2.22736         13.1671         2.32559 
        2.23349         13.1049         2.30999 
        2.23962         13.0619         2.29453 
        2.24577         13.0015         2.27919 
         2.2519         12.9938         2.26402 
        2.25802         12.9364         2.24901 
        2.26417         12.8954         2.23409 
        2.27031         12.8289          2.2193 
        2.27644         12.7795         2.20468 
        2.28257         12.7316          2.1902 
        2.28872         12.6852         2.17581 
        2.29486          12.661         2.16157 
        2.30099          12.615         2.14747 
        2.30712         12.5632          2.1335 
        2.31326         12.5223         2.11963 
         2.3194         12.4581         2.10589 
        2.32553         12.4201         2.09229 
        2.33166         12.3331         2.07882 
         2.3378         12.3187         2.06545 
        2.34394         12.2733          2.0522 
        2.35007         12.2127         2.03908 
        2.35619         12.1658         2.02609 
        2.36233         12.1281         2.01318 
        2.36848         12.1122         2.00036 
        2.37462         12.0824         1.98767 
        2.38075         11.9949         1.97511 
        2.38689         11.9681         1.96265 
        2.39303         11.9275          1.9503 
        2.39916         11.8882         1.93806 
        2.40529          11.843         1.92594 
        2.41143         11.7995          1.9139 
        2.41757         11.7688         1.90197 
         2.4237         11.7115         1.89016 
        2.42983         11.6703         1.87845 
        2.43598          11.643         1.86681 
        2.44211         11.5803         1.85529 
        2.44823         11.5373         1.84389 
        2.45437         11.5264         1.83255 
        2.46052         11.4698          1.8213 
        2.46665         11.4128         1.81017 
        2.47279         11.3731         1.79913 
        2.47892          11.348         1.78818 
        2.48507         11.3203         1.77731 
         2.4912         11.2759         1.76655 
