# k  (h/Mpc)    P(k)  (Mpc/h)^3    P_linear(k)  (Mpc/h)^3
     0.00783031         134.011         141.947 
       0.013688         163.799         172.591 
       0.019231         164.313         172.456 
      0.0249154         150.152         157.766 
      0.0312784         129.707         135.809 
      0.0375637         110.897         115.894 
      0.0433917         97.2151         101.698 
      0.0492413         87.6037         91.5804 
      0.0555754         80.0488         83.8612 
      0.0619321         74.2565         77.5885 
       0.067871         68.4343          71.705 
      0.0738098         62.2721         65.2514 
      0.0800417         55.3959         58.0723 
      0.0862327         48.9317         51.2028 
      0.0921407         43.5444         45.5291 
      0.0982031         39.1461         40.9594 
       0.104506         35.9707         37.5432 
       0.110769         33.6634         35.1672 
       0.116806           31.87         33.3838 
       0.122832         30.2898         31.6818 
       0.129052         28.3688         29.7303 
       0.135211         26.2804         27.5457 
       0.141259         24.1745         25.2852 
       0.147318         22.1478         23.1164 
       0.153489         20.2864         21.1959 
       0.159709         18.8129         19.6543 
       0.165845         17.7672         18.5065 
       0.171974         16.8605          17.632 
       0.178125         16.1602         16.8913 
       0.184229          15.486         16.1685 
        0.19034         14.6851         15.3825 
       0.196428          13.898          14.525 
       0.202534         13.0896         13.6297 
       0.208729         12.2216         12.7507 
       0.214876         11.4513         11.9668 
       0.220989         10.8643         11.3066 
       0.227147         10.2995         10.7616 
        0.23329         9.86694         10.3111 
       0.239377         9.49529         9.91744 
       0.245482         9.11757         9.53821 
       0.251667         8.77042         9.14467 
       0.257832         8.36763         8.73585 
       0.263955         7.98092         8.32287 
       0.270079         7.60049         7.91986 
        0.27624          7.2597         7.54263 
       0.282372         6.93713         7.20632 
        0.28843         6.64028         6.91418 
       0.294538         6.39228         6.65434 
       0.300721         6.18051         6.41539 
        0.30691         5.94311         6.18895 
       0.313033         5.73555         5.96848 
       0.319153         5.49938         5.74848 
       0.325316         5.32724         5.52789 
        0.33145         5.11783         5.31391 
       0.337538          4.9223         5.11159 
       0.343633         4.73405         4.92295 
       0.349808         4.57463         4.74724 
       0.355968         4.42166         4.58622 
       0.362074         4.27534         4.43794 
       0.368217         4.14059         4.29648 
       0.374374         3.99909         4.15975 
       0.380519         3.88173         4.02644 
       0.386598         3.76292         3.89737 
       0.392688         3.64843         3.77174 
        0.39888         3.52593         3.64876 
       0.405048         3.41575         3.53225 
       0.411186         3.31319         3.42289 
       0.417313         3.20871         3.31989 
       0.423458         3.12076         3.22225 
       0.429607         3.02458         3.12922 
       0.435692         2.93978         3.04071 
       0.441815         2.85833         2.95448 
       0.447964         2.78653         2.87057 
       0.454126         2.69901         2.78906 
       0.460267         2.62385         2.71056 
       0.466387         2.54854         2.63536 
        0.47254         2.48195           2.563 
       0.478662         2.41888         2.49412 
       0.484765         2.35137         2.42837 
       0.490885         2.29306         2.36513 
       0.497035         2.24331         2.30399 
       0.503198         2.18128         2.24484 
       0.509342         2.12952         2.18772 
       0.515458          2.0727         2.13265 
       0.521598         2.02221         2.07917 
       0.527764         1.96785         2.02731 
       0.533884         1.92763         1.97763 
           0.54         1.87952         1.92974 
       0.546137         1.83696         1.88338 
       0.552299         1.79304         1.83848 
       0.558452         1.74751         1.79521 
       0.564573         1.71079         1.75357 
       0.570708         1.67186         1.71315 
       0.576825         1.63173         1.67406 
       0.582926         1.59959         1.63625 
       0.589034         1.55667         1.59956 
       0.595184         1.52414         1.56376 
       0.601379          1.4909         1.52886 
       0.607522         1.46192         1.49534 
       0.613639         1.43458         1.46299 
       0.619772         1.39841         1.43155 
       0.625918         1.37136         1.40098 
       0.632068         1.34507         1.37129 
       0.638161         1.31495         1.34273 
         0.6443         1.28779         1.31478 
       0.650464         1.25886         1.28753 
       0.656582         1.23622         1.26126 
       0.662703         1.21221         1.23572 
       0.668861         1.19137         1.21076 
       0.675024         1.16496         1.18647 
       0.681124         1.13981         1.16311 
       0.687237         1.12135         1.14033 
       0.693381         1.10023         1.11807 
       0.699536         1.07407         1.09637 
       0.705665         1.05521         1.07534 
       0.711789         1.03774         1.05488 
       0.717957         1.01642         1.03483 
        0.72409        0.998235         1.01541 
       0.730186        0.979445        0.996613 
       0.736317        0.965523        0.978194 
       0.742472        0.946989        0.960178 
       0.748622        0.928745        0.942636 
        0.75476        0.910612        0.925575 
       0.760888        0.894203        0.908966 
       0.767043        0.883435        0.892703 
       0.773185        0.864962        0.876876 
       0.779291        0.850182        0.861526 
       0.785407        0.836084        0.846525 
       0.791564        0.822407         0.83179 
       0.797719        0.809448        0.817416 
       0.803834         0.79626        0.803476 
       0.809972        0.782122        0.789813 
       0.816124         0.76852        0.776441 
       0.822261        0.754754        0.763417 
       0.828378        0.744194        0.750734 
       0.834502        0.733396        0.738331 
       0.840667        0.719034        0.726131 
       0.846816        0.707819        0.714243 
       0.852925         0.69896        0.702698 
       0.859047        0.687799        0.691387 
       0.865192        0.675643        0.680289 
       0.871341        0.665039         0.66943 
       0.877463        0.656949        0.658859 
       0.883569        0.645168        0.648545 
       0.889708        0.635593        0.638401 
       0.895864        0.625748         0.62845 
       0.902008        0.615623        0.618733 
       0.908149        0.606468         0.60923 
       0.914301         0.59534        0.599912 
       0.920448        0.587642          0.5908 
       0.926574        0.578603         0.58191 
       0.932687        0.569911        0.573223 
       0.938823        0.563894        0.564684 
       0.944975        0.555198        0.556301 
       0.951105        0.547509        0.548119 
       0.957225         0.54097        0.540117 
       0.963368        0.532479        0.532248 
       0.969511        0.523959        0.524537 
       0.975621        0.516212        0.517022 
       0.981748        0.510987        0.509635 
       0.987916        0.503124        0.502348 
        0.99406        0.495764        0.495231 
        1.00019        0.490239        0.488268 
        1.00632        0.481789        0.481446 
        1.01246        0.475228        0.474744 
        1.01859        0.469825        0.468183 
        1.02471        0.463141        0.461754 
        1.03085        0.458374        0.455424 
        1.03698        0.451103        0.449228 
        1.04314        0.445548        0.443121 
        1.04929        0.439006        0.437142 
        1.05541        0.434149        0.431299 
        1.06154        0.427886        0.425548 
        1.06769        0.421942        0.419894 
        1.07382        0.416902        0.414362 
        1.07993        0.411113        0.408943 
        1.08607        0.407425        0.403599 
        1.09222        0.401219        0.398345 
        1.09836        0.397612        0.393192 
        1.10449        0.392366        0.388137 
        1.11063         0.38642        0.383165 
        1.11677        0.381094        0.378283 
         1.1229        0.377229        0.373495 
        1.12903        0.372067        0.368787 
        1.13518        0.368297        0.364156 
        1.14131        0.363281        0.359607 
        1.14745        0.357601         0.35514 
        1.15359        0.354527        0.350748 
        1.15973        0.349299        0.346428 
        1.16584        0.346632        0.342202 
        1.17197        0.342153         0.33804 
        1.17811        0.338661        0.333935 
        1.18424        0.335224         0.32991 
        1.19038        0.330409         0.32594 
        1.19652        0.325787        0.322038 
        1.20267        0.323317          0.3182 
        1.20881         0.31912        0.314425 
        1.21495        0.316228        0.310718 
        1.22108        0.312281        0.307072 
         1.2272        0.309168        0.303493 
        1.23334        0.305127        0.299964 
        1.23949         0.30181        0.296482 
        1.24562        0.298512        0.293066 
        1.25174        0.295479        0.289709 
        1.25789        0.292517        0.286394 
        1.26402        0.288291        0.283138 
        1.27014        0.285557        0.279941 
        1.27628         0.28301        0.276784 
        1.28244        0.278792        0.273669 
        1.28858        0.276393        0.270607 
        1.29471        0.274216        0.267599 
        1.30084        0.270588         0.26464 
        1.30697        0.267682        0.261721 
        1.31312        0.264026        0.258842 
        1.31925          0.2617        0.256015 
        1.32537        0.259361        0.253234 
        1.33151        0.256972        0.250484 
        1.33765        0.254328        0.247777 
        1.34378        0.250967        0.245115 
        1.34992        0.248641        0.242491 
        1.35606         0.24617        0.239899 
         1.3622        0.243708        0.237351 
        1.36833        0.241035        0.234845 
        1.37445        0.237985        0.232377 
        1.38059        0.235891        0.229938 
        1.38675        0.234555        0.227527 
        1.39288        0.231763        0.225161 
        1.39901        0.229418         0.22283 
        1.40515        0.227472        0.220527 
         1.4113        0.224591        0.218257 
        1.41742         0.22247        0.216028 
        1.42355        0.220863        0.213826 
         1.4297        0.218134        0.211649 
        1.43585        0.216308        0.209502 
        1.44198        0.214627        0.207394 
        1.44809        0.212038        0.205319 
        1.45423        0.210219        0.203265 
        1.46036        0.208052        0.201242 
        1.46649        0.206618        0.199247 
        1.47263        0.204319        0.197277 
        1.47877         0.20202        0.195334 
        1.48491        0.200508        0.193415 
        1.49104        0.198122        0.191526 
        1.49718        0.196404         0.18966 
        1.50333        0.195099        0.187817 
        1.50947        0.192997        0.186001 
         1.5156        0.191111        0.184213 
        1.52172        0.189525        0.182448 
        1.52787        0.187758        0.180703 
          1.534        0.185778        0.178983 
        1.54013        0.184114        0.177287 
        1.54627        0.182837         0.17561 
        1.55241        0.180835        0.173955 
        1.55855        0.179019        0.172324 
        1.56467        0.178221        0.170718 
         1.5708        0.176228        0.169128 
        1.57695         0.17471        0.167555 
        1.58308        0.173048        0.166007 
        1.58922        0.171682        0.164477 
        1.59535        0.170154        0.162967 
         1.6015        0.168499        0.161474 
        1.60764        0.167173        0.160001 
        1.61376         0.16539         0.15855 
        1.61989         0.16421        0.157116 
        1.62604        0.162991        0.155697 
        1.63218        0.161533        0.154296 
        1.63831        0.160243        0.152915 
        1.64444        0.158832        0.151551 
        1.65059        0.157438          0.1502 
        1.65673        0.156217        0.148868 
        1.66285         0.15512        0.147555 
        1.66898        0.153703        0.146258 
        1.67512        0.152136        0.144973 
        1.68127        0.150834        0.143703 
         1.6874        0.149973        0.142452 
        1.69353        0.148257        0.141215 
        1.69967        0.147633        0.139991 
        1.70581        0.145886        0.138782 
        1.71193         0.14486        0.137591 
        1.71806        0.143484        0.136413 
        1.72421        0.142786        0.135245 
        1.73035        0.141314        0.134093 
        1.73649         0.14044        0.132954 
        1.74262        0.139226         0.13183 
        1.74876        0.138042        0.130718 
        1.75489        0.137095        0.129621 
        1.76101         0.13574        0.128537 
        1.76715        0.134707        0.127464 
        1.77329        0.133502        0.126401 
        1.77943        0.132564        0.125351 
        1.78557        0.131759        0.124314 
        1.79171        0.130719        0.123289 
        1.79785        0.129662        0.122275 
        1.80399        0.128613        0.121273 
        1.81012        0.127672        0.120283 
        1.81625        0.126643        0.119305 
        1.82239        0.125692        0.118337 
        1.82853         0.12459        0.117379 
        1.83466        0.123801        0.116433 
        1.84078        0.122844        0.115499 
        1.84692         0.12177        0.114573 
        1.85306        0.121117        0.113657 
         1.8592        0.119951        0.112751 
        1.86533        0.119274        0.111857 
        1.87147        0.118311        0.110971 
        1.87761          0.1176        0.110094 
        1.88375        0.116526        0.109227 
        1.88988        0.115681        0.108371 
        1.89601        0.114763        0.107524 
        1.90215        0.114042        0.106685 
        1.90829         0.11302        0.105855 
        1.91442        0.112519        0.105035 
        1.92056        0.111528        0.104223 
         1.9267        0.110616         0.10342 
        1.93284        0.109858        0.102624 
        1.93897        0.109044        0.101838 
        1.94509        0.108451        0.101063 
        1.95123        0.107584        0.100293 
        1.95737        0.106894        0.099531 
        1.96349        0.106017       0.0987788 
        1.96964        0.105193       0.0980322 
        1.97578        0.104494       0.0972931 
        1.98192        0.103887       0.0965631 
        1.98805         0.10321       0.0958405 
        1.99419        0.102252       0.0951253 
        2.00033        0.101556       0.0944171 
        2.00647        0.101089       0.0937162 
         2.0126        0.100138       0.0930238 
        2.01874       0.0996624       0.0923372 
        2.02488       0.0989707        0.091657 
        2.03101       0.0982646        0.090985 
        2.03714       0.0974696       0.0903203 
        2.04328       0.0969962       0.0896615 
        2.04941       0.0961245       0.0890099 
        2.05554       0.0956192       0.0883652 
        2.06167       0.0951655        0.087726 
        2.06781       0.0942575       0.0870931 
        2.07396       0.0936717       0.0864655 
        2.08009       0.0930615       0.0858452 
        2.08622       0.0924958       0.0852317 
        2.09237       0.0918996       0.0846229 
        2.09851       0.0912977       0.0840201 
        2.10464       0.0907468        0.083424 
        2.11077       0.0900322       0.0828345 
        2.11691         0.08949       0.0822495 
        2.12305       0.0888624         0.08167 
        2.12918       0.0884141       0.0810975 
        2.13531       0.0876548       0.0805305 
        2.14145        0.087008       0.0799676 
         2.1476       0.0865842       0.0794094 
        2.15372       0.0861937       0.0788593 
        2.15985       0.0854894        0.078314 
        2.16599       0.0849126       0.0777722 
        2.17213       0.0844159       0.0772362 
        2.17827       0.0837943       0.0767054 
         2.1844       0.0834135         0.07618 
        2.19054       0.0828247       0.0756594 
        2.19666       0.0822193       0.0751444 
         2.2028       0.0817447       0.0746337 
        2.20893       0.0813985       0.0741276 
        2.21508        0.080688       0.0736256 
        2.22122       0.0801159       0.0731281 
        2.22736       0.0798439       0.0726362 
        2.23349       0.0792687        0.072149 
        2.23962       0.0789004        0.071666 
        2.24577        0.078257        0.071187 
         2.2519       0.0778356       0.0707131 
        2.25802       0.0773289       0.0702443 
        2.26417       0.0768977       0.0697784 
        2.27031       0.0763597       0.0693163 
        2.27644       0.0759137       0.0688598 
        2.28257       0.0754611       0.0684074 
        2.28872       0.0750385       0.0679582 
        2.29486       0.0747456       0.0675132 
        2.30099        0.074096        0.067073 
        2.30712       0.0736766       0.0666366 
        2.31326       0.0731472       0.0662033 
         2.3194       0.0729668       0.0657742 
        2.32553        0.072428       0.0653496 
        2.33166       0.0721454       0.0649289 
         2.3378       0.0716563       0.0645113 
        2.34394       0.0711618       0.0640973 
        2.35007       0.0707303       0.0636875 
        2.35619       0.0702101       0.0632817 
        2.36233        0.069922       0.0628786 
        2.36848       0.0696524       0.0624781 
        2.37462       0.0690754        0.062082 
        2.38075       0.0687714       0.0616897 
        2.38689       0.0683908       0.0613004 
        2.39303       0.0680532       0.0609146 
        2.39916       0.0675585       0.0605325 
        2.40529        0.067214       0.0601537 
        2.41143       0.0667688       0.0597779 
        2.41757       0.0664277       0.0594051 
         2.4237       0.0661312       0.0590363 
        2.42983        0.065745       0.0586705 
        2.43598       0.0654702        0.058307 
        2.44211       0.0649531       0.0579471 
        2.44823       0.0646866        0.057591 
        2.45437        0.064239        0.057237 
        2.46052        0.063958       0.0568857 
        2.46665       0.0635178       0.0565379 
        2.47279        0.063159       0.0561932 
        2.47892       0.0627162       0.0558511 
        2.48507       0.0624441       0.0555116 
         2.4912       0.0621427       0.0551755 
