# k  (h/Mpc)    P(k)  (Mpc/h)^3    P_linear(k)  (Mpc/h)^3
     0.00783031          2626.5         2668.16 
       0.013688         3230.56         3240.46 
       0.019231          3229.1         3236.37 
      0.0249154         2929.64          2959.9 
      0.0312784         2537.56         2547.52 
      0.0375637         2175.72         2173.72 
      0.0433917         1896.79         1907.32 
      0.0492413         1714.65         1717.49 
      0.0555754         1556.28         1572.67 
      0.0619321         1459.86            1455 
       0.067871         1333.53         1344.64 
      0.0738098         1213.24          1223.6 
      0.0800417         1075.79         1088.96 
      0.0862327         954.729         960.129 
      0.0921407         853.584         853.731 
      0.0982031         764.959         768.038 
       0.104506         710.259         703.975 
       0.110769         663.739         659.421 
       0.116806         625.242         625.978 
       0.122832         596.589         594.062 
       0.129052         555.081         557.467 
       0.135211         515.293         516.503 
       0.141259         477.893         474.115 
       0.147318         440.339         433.446 
       0.153489         402.334         397.435 
       0.159709         375.274         368.527 
       0.165845         357.407         347.006 
       0.171974           337.2         330.609 
       0.178125         323.651         316.719 
       0.184229         310.886         303.167 
        0.19034         291.414         288.428 
       0.196428         279.585         272.349 
       0.202534         266.162         255.562 
       0.208729         248.659          239.08 
       0.214876         232.735         224.381 
       0.220989         223.336         212.002 
       0.227147         210.597         201.784 
        0.23329         202.189         193.336 
       0.239377          196.07         185.955 
       0.245482         185.585         178.844 
       0.251667         181.097         171.465 
       0.257832         173.707           163.8 
       0.263955         166.042         156.056 
       0.270079         158.833         148.499 
        0.27624         153.929         141.426 
       0.282372         147.545          135.12 
        0.28843         141.335         129.642 
       0.294538         135.844          124.77 
       0.300721         132.995          120.29 
        0.30691         127.145         116.044 
       0.313033         123.279          111.91 
       0.319153         117.492         107.785 
       0.325316         115.185         103.649 
        0.33145         110.606         99.6367 
       0.337538         107.787         95.8433 
       0.343633         103.836         92.3061 
       0.349808         100.668         89.0116 
       0.355968         97.9758         85.9923 
       0.362074         94.9019          83.212 
       0.368217         92.1517         80.5596 
       0.374374         89.3856          77.996 
       0.380519         87.1465         75.4964 
       0.386598         84.7058         73.0762 
       0.392688         82.8927         70.7206 
        0.39888         80.4269         68.4147 
       0.405048         78.4233         66.2301 
       0.411186         76.5574         64.1797 
       0.417313         74.1681         62.2485 
       0.423458         72.3378         60.4176 
       0.429607         70.4428         58.6733 
       0.435692         68.1695         57.0137 
       0.441815         67.2331         55.3969 
       0.447964         66.0628         53.8236 
       0.454126         63.2815         52.2952 
       0.460267         62.2934         50.8232 
       0.466387         60.6361         49.4133 
        0.47254         59.6504         48.0565 
       0.478662         58.6592         46.7651 
       0.484765         56.9308         45.5322 
       0.490885         55.7089         44.3465 
       0.497035         54.9758            43.2 
       0.503198         53.4878         42.0909 
       0.509342         52.1346         41.0199 
       0.515458         51.1515         39.9874 
       0.521598         50.3429         38.9847 
       0.527764         49.3403         38.0123 
       0.533884         48.5009         37.0808 
           0.54         47.4582         36.1828 
       0.546137         46.7776         35.3135 
       0.552299         46.0485         34.4717 
       0.558452         44.6651         33.6603 
       0.564573         43.9617         32.8796 
       0.570708         43.3256         32.1216 
       0.576825         42.3519         31.3887 
       0.582926         41.5181         30.6799 
       0.589034         40.5092         29.9918 
       0.595184         40.0107         29.3206 
       0.601379         39.3379         28.6662 
       0.607522         38.5203         28.0377 
       0.613639         38.2365         27.4313 
       0.619772         37.2553         26.8417 
       0.625918         37.0519         26.2686 
       0.632068         36.4602         25.7119 
       0.638161         35.7553         25.1764 
         0.6443         35.0822         24.6523 
       0.650464         34.5054         24.1414 
       0.656582         34.2642         23.6488 
       0.662703         33.5861         23.1699 
       0.668861         33.0241         22.7018 
       0.675024          32.482         22.2465 
       0.681124         31.9211         21.8084 
       0.687237         31.3852         21.3813 
       0.693381         31.1394         20.9639 
       0.699536         30.3828          20.557 
       0.705665           30.37         20.1627 
       0.711789         29.6493         19.7792 
       0.717957         29.2839         19.4031 
        0.72409         28.8717          19.039 
       0.730186         28.4469         18.6866 
       0.736317         28.1846         18.3412 
       0.742472         27.6853         18.0034 
       0.748622         27.4389         17.6745 
        0.75476         26.9834         17.3546 
       0.760888         26.5873         17.0432 
       0.767043         26.2879         16.7383 
       0.773185         25.8466         16.4415 
       0.779291         25.7202         16.1537 
       0.785407         25.4216         15.8724 
       0.791564         24.9648         15.5961 
       0.797719         24.4383         15.3266 
       0.803834         24.4108         15.0652 
       0.809972         24.1703         14.8091 
       0.816124         23.6264         14.5583 
       0.822261          23.445         14.3141 
       0.828378         23.2231         14.0763 
       0.834502         22.9815         13.8438 
       0.840667         22.6894          13.615 
       0.846816          22.304         13.3921 
       0.852925         22.1035         13.1756 
       0.859047         21.8559         12.9635 
       0.865192         21.6469         12.7555 
       0.871341         21.4997         12.5519 
       0.877463          21.097         12.3537 
       0.883569         20.8622         12.1603 
       0.889708         20.5899         11.9701 
       0.895864         20.4311         11.7835 
       0.902008         20.2749         11.6013 
       0.908149         20.0542         11.4231 
       0.914301         19.9507         11.2484 
       0.920448          19.555         11.0775 
       0.926574         19.4074         10.9108 
       0.932687         19.1997          10.748 
       0.938823         18.9495         10.5879 
       0.944975         18.7668         10.4307 
       0.951105         18.6082         10.2773 
       0.957225         18.4164         10.1272 
       0.963368          18.277         9.97969 
       0.969511         18.1123         9.83511 
       0.975621          17.956         9.69419 
       0.981748         17.7095          9.5557 
       0.987916         17.6094         9.41905 
        0.99406         17.3834         9.28562 
        1.00019         17.1573         9.15505 
        1.00632          17.102         9.02713 
        1.01246         16.9451         8.90149 
        1.01859         16.6848         8.77845 
        1.02471         16.6329         8.65791 
        1.03085         16.4714         8.53923 
        1.03698         16.2133         8.42305 
        1.04314         16.1285         8.30854 
        1.04929         15.9367         8.19644 
        1.05541         15.7723         8.08687 
        1.06154         15.6813         7.97905 
        1.06769         15.5955         7.87304 
        1.07382         15.3964         7.76931 
        1.07993         15.3068          7.6677 
        1.08607         15.1324          7.5675 
        1.09222         15.0379         7.46899 
        1.09836         14.8534         7.37237 
        1.10449         14.7628         7.27759 
        1.11063         14.6022         7.18437 
        1.11677         14.5471         7.09283 
         1.1229         14.4596         7.00306 
        1.12903         14.2707         6.91477 
        1.13518         14.1102         6.82794 
        1.14131          14.059         6.74266 
        1.14745         13.9429         6.65889 
        1.15359          13.852         6.57654 
        1.15973         13.7199         6.49555 
        1.16584          13.533          6.4163 
        1.17197         13.4967         6.33826 
        1.17811         13.3873         6.26129 
        1.18424         13.2715         6.18583 
        1.19038         13.2178          6.1114 
        1.19652         13.0872         6.03823 
        1.20267         12.9679         5.96626 
        1.20881         12.9233         5.89549 
        1.21495          12.827         5.82598 
        1.22108         12.6835         5.75761 
         1.2272         12.5861         5.69051 
        1.23334         12.4899         5.62433 
        1.23949         12.3769         5.55905 
        1.24562         12.3376           5.495 
        1.25174          12.254         5.43205 
        1.25789         12.1567         5.36991 
        1.26402         12.1066         5.30885 
        1.27014         11.9916          5.2489 
        1.27628         11.8441          5.1897 
        1.28244         11.7857         5.13131 
        1.28858         11.7697          5.0739 
        1.29471         11.6415         5.01749 
        1.30084         11.5334           4.962 
        1.30697         11.4966         4.90727 
        1.31312          11.359         4.85329 
        1.31925         11.2826          4.8003 
        1.32537         11.2419         4.74814 
        1.33151         11.1638         4.69659 
        1.33765          11.083         4.64582 
        1.34378         11.0077         4.59592 
        1.34992         10.9071         4.54671 
        1.35606         10.8727         4.49812 
         1.3622         10.8039         4.45033 
        1.36833         10.7038         4.40336 
        1.37445         10.6589         4.35709 
        1.38059         10.6013         4.31134 
        1.38675         10.4945         4.26614 
        1.39288         10.4614         4.22178 
        1.39901          10.358         4.17807 
        1.40515         10.3145         4.13488 
         1.4113         10.2482         4.09233 
        1.41742         10.1785         4.05053 
        1.42355         10.1055         4.00925 
         1.4297         10.0575         3.96842 
        1.43585         10.0164         3.92817 
        1.44198         9.95045         3.88865 
        1.44809         9.88214         3.84974 
        1.45423         9.81081         3.81122 
        1.46036         9.75318          3.7733 
        1.46649         9.71035         3.73588 
        1.47263         9.61932         3.69894 
        1.47877         9.57069         3.66252 
        1.48491          9.5256         3.62654 
        1.49104         9.46739         3.59111 
        1.49718         9.41525         3.55613 
        1.50333          9.3655         3.52157 
        1.50947         9.29977         3.48753 
         1.5156         9.24437           3.454 
        1.52172         9.20389         3.42091 
        1.52787         9.13637         3.38819 
          1.534         9.07741         3.35594 
        1.54013         9.03051         3.32414 
        1.54627         8.96284          3.2927 
        1.55241         8.93032         3.26166 
        1.55855         8.88866         3.23107 
        1.56467         8.82163         3.20096 
         1.5708         8.80718         3.17115 
        1.57695         8.72583         3.14167 
        1.58308         8.67444         3.11264 
        1.58922         8.64605         3.08395 
        1.59535         8.60724         3.05564 
         1.6015         8.53691         3.02765 
        1.60764         8.48031         3.00002 
        1.61376          8.4657         2.97282 
        1.61989         8.40312         2.94593 
        1.62604         8.36627         2.91931 
        1.63218         8.33106         2.89305 
        1.63831         8.28869         2.86716 
        1.64444         8.23504         2.84159 
        1.65059         8.16788         2.81626 
        1.65673         8.16412         2.79127 
        1.66285         8.07715         2.76666 
        1.66898         8.05393         2.74233 
        1.67512         8.01915         2.71826 
        1.68127         7.97002         2.69444 
         1.6874         7.94247         2.67097 
        1.69353         7.88286         2.64779 
        1.69967         7.84894         2.62484 
        1.70581         7.81622         2.60216 
        1.71193         7.76294         2.57984 
        1.71806         7.74593         2.55774 
        1.72421         7.68668         2.53585 
        1.73035         7.66808         2.51424 
        1.73649         7.62832         2.49289 
        1.74262         7.58107         2.47181 
        1.74876         7.55662         2.45096 
        1.75489          7.5188         2.43039 
        1.76101         7.46108         2.41006 
        1.76715         7.44786         2.38994 
        1.77329         7.39333         2.37003 
        1.77943         7.35324         2.35034 
        1.78557         7.34364          2.3309 
        1.79171         7.30283         2.31167 
        1.79785         7.25191         2.29266 
        1.80399         7.21626         2.27387 
        1.81012         7.19353         2.25531 
        1.81625         7.15231         2.23697 
        1.82239         7.12547         2.21881 
        1.82853         7.08101         2.20086 
        1.83466         7.05148         2.18313 
        1.84078         7.01462         2.16561 
        1.84692         7.00552         2.14825 
        1.85306         6.95451         2.13106 
         1.8592         6.91666         2.11409 
        1.86533         6.89273         2.09731 
        1.87147          6.8644          2.0807 
        1.87761         6.83499         2.06426 
        1.88375         6.79101         2.04801 
        1.88988         6.77999         2.03196 
        1.89601         6.74182         2.01607 
        1.90215         6.70877         2.00034 
        1.90829         6.67574         1.98479 
        1.91442         6.64688          1.9694 
        1.92056         6.62679         1.95419 
         1.9267           6.586         1.93912 
        1.93284         6.55694          1.9242 
        1.93897         6.52251         1.90947 
        1.94509         6.50425         1.89493 
        1.95123         6.47164          1.8805 
        1.95737         6.43643         1.86621 
        1.96349         6.41877          1.8521 
        1.96964         6.38377         1.83811 
        1.97578         6.35327         1.82425 
        1.98192         6.33238         1.81056 
        1.98805         6.30952         1.79701 
        1.99419         6.27569          1.7836 
        2.00033         6.26516         1.77032 
        2.00647         6.22842         1.75718 
         2.0126         6.20349          1.7442 
        2.01874         6.17531         1.73132 
        2.02488         6.15109         1.71857 
        2.03101         6.11867         1.70597 
        2.03714          6.0872         1.69351 
        2.04328         6.06845         1.68115 
        2.04941         6.03633         1.66894 
        2.05554         6.01857         1.65685 
        2.06167         5.98796         1.64486 
        2.06781         5.97258           1.633 
        2.07396         5.95536         1.62123 
        2.08009         5.92241          1.6096 
        2.08622         5.89106         1.59809 
        2.09237         5.87749         1.58668 
        2.09851           5.861         1.57538 
        2.10464         5.82884          1.5642 
        2.11077         5.79147         1.55315 
        2.11691         5.77179         1.54218 
        2.12305         5.75565         1.53131 
        2.12918         5.74213         1.52058 
        2.13531         5.71088         1.50995 
        2.14145         5.69142         1.49939 
         2.1476         5.66109         1.48893 
        2.15372          5.6426         1.47861 
        2.15985         5.63788         1.46839 
        2.16599         5.59516         1.45823 
        2.17213         5.58403         1.44818 
        2.17827         5.56566         1.43823 
         2.1844         5.53845         1.42837 
        2.19054         5.50373         1.41861 
        2.19666         5.49091         1.40896 
         2.2028         5.47209         1.39938 
        2.20893         5.45551         1.38989 
        2.21508         5.42622         1.38048 
        2.22122         5.40341         1.37115 
        2.22736         5.38679         1.36193 
        2.23349         5.37489         1.35279 
        2.23962         5.35417         1.34374 
        2.24577         5.32568         1.33476 
         2.2519         5.31574         1.32587 
        2.25802         5.28542         1.31708 
        2.26417         5.26807         1.30834 
        2.27031          5.2456         1.29968 
        2.27644         5.22445         1.29112 
        2.28257         5.20706         1.28264 
        2.28872         5.19393         1.27422 
        2.29486         5.17436         1.26587 
        2.30099         5.15406         1.25762 
        2.30712          5.1355         1.24944 
        2.31326         5.10404         1.24131 
         2.3194         5.09403         1.23327 
        2.32553         5.08219          1.2253 
        2.33166         5.06467         1.21742 
         2.3378         5.03931         1.20959 
        2.34394         5.02306         1.20182 
        2.35007         4.99803         1.19414 
        2.35619         4.98663         1.18653 
        2.36233         4.96814         1.17897 
        2.36848         4.94883         1.17146 
        2.37462         4.93817         1.16404 
        2.38075         4.92039         1.15668 
        2.38689           4.903         1.14938 
        2.39303         4.87794         1.14215 
        2.39916         4.86324         1.13498 
        2.40529         4.84656         1.12788 
        2.41143         4.82891         1.12083 
        2.41757         4.82701         1.11385 
         2.4237         4.80401         1.10693 
        2.42983           4.778         1.10007 
        2.43598         4.76649         1.09325 
        2.44211         4.74729         1.08651 
        2.44823         4.73435         1.07983 
        2.45437         4.71688         1.07319 
        2.46052           4.698         1.06661 
        2.46665         4.68465         1.06008 
        2.47279         4.66367         1.05362 
        2.47892          4.6466         1.04721 
        2.48507         4.63757         1.04084 
         2.4912         4.61502         1.03454 
