# k  (h/Mpc)    P(k)  (Mpc/h)^3    P_linear(k)  (Mpc/h)^3
     0.00783031         11056.2         11232.3 
       0.013688         13705.5         13631.9 
       0.019231         13618.6         13609.9 
      0.0249154         12221.5         12444.6 
      0.0312784         10613.8         10709.2 
      0.0375637         9138.33         9136.86 
      0.0433917         7899.02          8016.6 
      0.0492413         7171.67         7218.37 
      0.0555754         6436.31         6609.44 
      0.0619321         6122.13         6114.71 
       0.067871         5521.01         5650.79 
      0.0738098         5028.12         5142.03 
      0.0800417         4440.02         4576.15 
      0.0862327         3969.32         4034.72 
      0.0921407         3588.38         3587.57 
      0.0982031         3211.55         3227.44 
       0.104506         3023.12         2958.21 
       0.110769         2819.03         2770.97 
       0.116806         2656.52         2630.42 
       0.122832          2530.7          2496.3 
       0.129052         2335.27         2342.51 
       0.135211         2182.76         2170.37 
       0.141259         2053.01         1992.25 
       0.147318            1909         1821.35 
       0.153489         1743.71         1670.03 
       0.159709         1647.09         1548.55 
       0.165845         1583.75         1458.12 
       0.171974         1499.89         1389.21 
       0.178125         1433.26         1330.85 
       0.184229         1375.03          1273.9 
        0.19034         1285.37         1211.96 
       0.196428         1252.05          1144.4 
       0.202534          1199.8         1073.86 
       0.208729         1133.79          1004.6 
       0.214876          1075.1         942.834 
       0.220989         1038.24         890.817 
       0.227147         989.689         847.881 
        0.23329         951.699         812.385 
       0.239377         933.118         781.368 
       0.245482         872.201         751.489 
       0.251667         864.029         720.482 
       0.257832         829.914         688.272 
       0.263955         800.303         655.733 
       0.270079          769.74          623.98 
        0.27624         759.162         594.259 
       0.282372         727.477         567.762 
        0.28843         712.802         544.745 
       0.294538         677.463         524.273 
       0.300721         674.075         505.446 
        0.30691         643.755         487.605 
       0.313033          630.89         470.235 
       0.319153         613.197         452.902 
       0.325316         594.434         435.522 
        0.33145         577.544         418.663 
       0.337538         569.149         402.723 
       0.343633         551.612          387.86 
       0.349808         532.613         374.017 
       0.355968         528.348          361.33 
       0.362074         519.184         349.647 
       0.368217         504.512         338.502 
       0.374374         483.456          327.73 
       0.380519          480.83         317.227 
       0.386598         468.461         307.058 
       0.392688         465.584          297.16 
        0.39888         452.034          287.47 
       0.405048         442.737         278.291 
       0.411186         435.049         269.675 
       0.417313         426.679         261.561 
       0.423458         418.778         253.868 
       0.429607         411.116         246.538 
       0.435692         401.014         239.564 
       0.441815         397.723         232.771 
       0.447964         389.541          226.16 
       0.454126         378.947         219.738 
       0.460267         373.142         213.553 
       0.466387         368.906         207.628 
        0.47254          361.29         201.927 
       0.478662         360.341         196.501 
       0.484765         348.458          191.32 
       0.490885         344.895         186.338 
       0.497035          338.94         181.521 
       0.503198           333.1         176.861 
       0.509342         330.466          172.36 
       0.515458         326.621         168.022 
       0.521598         319.544         163.809 
       0.527764         314.248         159.723 
       0.533884         311.729         155.809 
           0.54         307.264         152.035 
       0.546137         305.857         148.383 
       0.552299         299.408         144.845 
       0.558452         297.496         141.436 
       0.564573         292.955         138.156 
       0.570708         287.472         134.971 
       0.576825         282.683         131.891 
       0.582926         280.255         128.913 
       0.589034         277.524         126.022 
       0.595184         274.806         123.201 
       0.601379         271.499         120.451 
       0.607522          266.95         117.811 
       0.613639         265.461         115.263 
       0.619772         259.408         112.785 
       0.625918          258.26         110.377 
       0.632068         254.382         108.038 
       0.638161          253.28         105.788 
         0.6443         249.008         103.586 
       0.650464         246.689         101.439 
       0.656582         244.926         99.3688 
       0.662703         243.313         97.3568 
       0.668861         238.937         95.3899 
       0.675024         236.236         93.4766 
       0.681124         235.135         91.6358 
       0.687237         232.123         89.8415 
       0.693381         228.645         88.0874 
       0.699536         226.899         86.3775 
       0.705665         225.276         84.7207 
       0.711789         222.697         83.1094 
       0.717957         221.549         81.5292 
        0.72409         218.968         79.9994 
       0.730186         216.425         78.5184 
       0.736317          214.17         77.0673 
       0.742472         213.101         75.6478 
       0.748622         211.163         74.2658 
        0.75476         209.363         72.9216 
       0.760888         206.653         71.6131 
       0.767043         206.468         70.3318 
       0.773185         204.074         69.0848 
       0.779291         200.316         67.8755 
       0.785407         199.811         66.6936 
       0.791564          197.89         65.5327 
       0.797719         195.405         64.4003 
       0.803834         194.386          63.302 
       0.809972         193.009         62.2255 
       0.816124         192.788          61.172 
       0.822261         190.105          60.146 
       0.828378         188.416         59.1467 
       0.834502         188.138         58.1695 
       0.840667         185.264         57.2083 
       0.846816         183.792         56.2717 
       0.852925         183.102         55.3622 
       0.859047         181.217          54.471 
       0.865192         179.558         53.5967 
       0.871341          177.98         52.7411 
       0.877463         176.701         51.9083 
       0.883569         175.988         51.0957 
       0.889708          174.25         50.2965 
       0.895864         172.222         49.5125 
       0.902008         171.519          48.747 
       0.908149         170.863         47.9982 
       0.914301         168.745         47.2641 
       0.920448         167.522         46.5462 
       0.926574         166.607         45.8458 
       0.932687         166.342         45.1615 
       0.938823         164.169         44.4887 
       0.944975         162.714         43.8282 
       0.951105          162.07         43.1836 
       0.957225         160.412         42.5532 
       0.963368          158.62         41.9332 
       0.969511          158.22         41.3257 
       0.975621          157.12         40.7336 
       0.981748         156.762         40.1517 
       0.987916         154.963         39.5775 
        0.99406          153.73         39.0168 
        1.00019         153.548         38.4682 
        1.00632         152.069         37.9307 
        1.01246         151.141         37.4028 
        1.01859          150.23         36.8858 
        1.02471          148.89         36.3793 
        1.03085         147.362         35.8806 
        1.03698         146.811         35.3924 
        1.04314         145.489         34.9113 
        1.04929         144.616         34.4403 
        1.05541         144.111         33.9799 
        1.06154         143.038         33.5268 
        1.06769         142.915         33.0814 
        1.07382         141.594         32.6455 
        1.07993          140.38         32.2186 
        1.08607         139.553         31.7975 
        1.09222         139.046         31.3836 
        1.09836         137.792         30.9776 
        1.10449          136.61         30.5794 
        1.11063          135.62         30.1877 
        1.11677         135.371         29.8031 
         1.1229         134.016         29.4258 
        1.12903         133.349         29.0549 
        1.13518         133.105           28.69 
        1.14131         131.753         28.3317 
        1.14745         131.209         27.9797 
        1.15359         130.291         27.6337 
        1.15973         129.856         27.2934 
        1.16584         128.425         26.9604 
        1.17197         127.929         26.6325 
        1.17811         127.241          26.309 
        1.18424         126.617          25.992 
        1.19038         126.139         25.6792 
        1.19652         125.149         25.3718 
        1.20267         124.461         25.0694 
        1.20881         123.445          24.772 
        1.21495         122.891         24.4799 
        1.22108         122.293         24.1927 
         1.2272         121.146         23.9107 
        1.23334         120.695         23.6326 
        1.23949         119.674         23.3583 
        1.24562         119.228         23.0892 
        1.25174         118.122         22.8247 
        1.25789         117.717         22.5636 
        1.26402         116.973          22.307 
        1.27014         116.296         22.0551 
        1.27628          115.75         21.8064 
        1.28244         115.187          21.561 
        1.28858         114.804         21.3198 
        1.29471         113.528         21.0828 
        1.30084         113.181         20.8496 
        1.30697         112.408         20.6196 
        1.31312         112.057         20.3928 
        1.31925         111.067         20.1701 
        1.32537         110.629          19.951 
        1.33151         109.596         19.7344 
        1.33765         109.274         19.5211 
        1.34378         108.624         19.3114 
        1.34992         108.381         19.1046 
        1.35606         107.646         18.9004 
         1.3622          106.76         18.6996 
        1.36833          106.31         18.5023 
        1.37445         105.644         18.3078 
        1.38059         105.165         18.1156 
        1.38675         104.404         17.9257 
        1.39288         104.054         17.7393 
        1.39901         103.616         17.5556 
        1.40515         102.832         17.3742 
         1.4113         102.103         17.1954 
        1.41742         101.879         17.0197 
        1.42355         101.112         16.8463 
         1.4297         100.637         16.6747 
        1.43585         99.8067         16.5056 
        1.44198         99.5707         16.3395 
        1.44809         98.8762          16.176 
        1.45423         98.3124         16.0142 
        1.46036          98.095         15.8548 
        1.46649         97.3781         15.6976 
        1.47263         96.8406         15.5424 
        1.47877         96.6033         15.3894 
        1.48491         95.6406         15.2382 
        1.49104         95.4411         15.0893 
        1.49718         94.7228         14.9423 
        1.50333         94.3088         14.7971 
        1.50947         93.8413         14.6541 
         1.5156          93.248         14.5132 
        1.52172         92.7015         14.3742 
        1.52787         92.4173         14.2367 
          1.534          91.774         14.1011 
        1.54013         91.2322         13.9675 
        1.54627         90.9158         13.8354 
        1.55241         90.3149          13.705 
        1.55855         89.9701         13.5765 
        1.56467         89.5302         13.4499 
         1.5708         88.9248         13.3247 
        1.57695         88.8501         13.2008 
        1.58308         87.9107         13.0788 
        1.58922         87.8187         12.9583 
        1.59535         87.3241         12.8394 
         1.6015         86.7392         12.7217 
        1.60764         86.3174         12.6056 
        1.61376         86.0976         12.4913 
        1.61989         85.3992         12.3784 
        1.62604         85.1941         12.2665 
        1.63218         84.7093         12.1561 
        1.63831         83.9495         12.0474 
        1.64444         83.7229         11.9399 
        1.65059         83.2546         11.8335 
        1.65673         82.6478         11.7285 
        1.66285         82.4345         11.6251 
        1.66898         81.9061         11.5229 
        1.67512         81.4607         11.4217 
        1.68127         81.1142         11.3216 
         1.6874         80.6632          11.223 
        1.69353         80.2244         11.1256 
        1.69967         79.7438         11.0292 
        1.70581         79.5607         10.9339 
        1.71193         79.2831         10.8401 
        1.71806         78.6384         10.7472 
        1.72421         78.2396         10.6553 
        1.73035         77.8498         10.5645 
        1.73649         77.4777         10.4748 
        1.74262         77.0816         10.3862 
        1.74876         76.7793         10.2986 
        1.75489         76.1607         10.2121 
        1.76101         75.9906         10.1267 
        1.76715         75.4638         10.0422 
        1.77329         75.2149         9.95851 
        1.77943         74.6436         9.87575 
        1.78557         74.5193         9.79407 
        1.79171         73.9692         9.71329 
        1.79785         73.6083         9.63341 
        1.80399         73.3673         9.55445 
        1.81012         73.0825         9.47649 
        1.81625         72.4885         9.39943 
        1.82239         72.2427         9.32311 
        1.82853         71.9496         9.24768 
        1.83466          71.564         9.17316 
        1.84078         71.2746         9.09954 
        1.84692         70.6894         9.02662 
        1.85306         70.3899          8.9544 
         1.8592         70.0073         8.88308 
        1.86533         69.7119         8.81259 
        1.87147         69.2321         8.74278 
        1.87761         69.0066         8.67369 
        1.88375         68.6229         8.60544 
        1.88988         68.3671         8.53799 
        1.89601         67.9529         8.47123 
        1.90215         67.6401         8.40514 
        1.90829         67.3813         8.33978 
        1.91442         67.0101         8.27511 
        1.92056         66.4795         8.21119 
         1.9267         66.3606         8.14788 
        1.93284         65.8828          8.0852 
        1.93897         65.5578          8.0233 
        1.94509         65.2831         7.96219 
        1.95123         64.9597         7.90156 
        1.95737         64.7424         7.84151 
        1.96349         64.2159         7.78225 
        1.96964         64.0689         7.72343 
        1.97578          63.774          7.6652 
        1.98192         63.4433         7.60769 
        1.98805         63.2102         7.55076 
        1.99419         62.7275         7.49441 
        2.00033         62.4756         7.43861 
        2.00647         62.2451          7.3834 
         2.0126         61.7489         7.32884 
        2.01874         61.4821         7.27475 
        2.02488         61.2886         7.22116 
        2.03101         61.0252         7.16822 
        2.03714         60.6297         7.11585 
        2.04328         60.4214         7.06395 
        2.04941         60.0636         7.01261 
        2.05554         59.7946         6.96182 
        2.06167         59.4727         6.91146 
        2.06781         59.2275         6.86159 
        2.07396         58.8599         6.81215 
        2.08009         58.6934         6.76328 
        2.08622         58.3982         6.71494 
        2.09237         58.0247         6.66698 
        2.09851         57.8932         6.61948 
        2.10464          57.485         6.57253 
        2.11077           57.17         6.52608 
        2.11691          56.916         6.47999 
        2.12305          56.696         6.43433 
        2.12918         56.4302         6.38923 
        2.13531         56.0715         6.34456 
        2.14145         55.8229         6.30021 
         2.1476         55.6299         6.25623 
        2.15372         55.3288          6.2129 
        2.15985         55.0342         6.16993 
        2.16599         54.7518         6.12725 
        2.17213         54.5526         6.08502 
        2.17827         54.2641          6.0432 
         2.1844         53.9362          6.0018 
        2.19054         53.6598         5.96079 
        2.19666         53.4135         5.92021 
         2.2028          53.333         5.87998 
        2.20893         53.0632         5.84011 
        2.21508         52.7311         5.80056 
        2.22122         52.5117         5.76136 
        2.22736         52.3007         5.72261 
        2.23349         52.0182         5.68422 
        2.23962         51.6662         5.64617 
        2.24577          51.407         5.60844 
         2.2519         51.1286          5.5711 
        2.25802         51.0418         5.53416 
        2.26417          50.683         5.49746 
        2.27031         50.5204         5.46105 
        2.27644         50.3021         5.42508 
        2.28257         49.9848         5.38944 
        2.28872         49.6986         5.35405 
        2.29486         49.5567         5.31899 
        2.30099         49.3387         5.28431 
        2.30712         49.1109         5.24993 
        2.31326         48.8004          5.2158 
         2.3194          48.544         5.18199 
        2.32553         48.2948         5.14853 
        2.33166         48.1014         5.11539 
         2.3378         47.8543         5.08249 
        2.34394         47.5795         5.04987 
        2.35007         47.3165         5.01758 
        2.35619         47.1757         4.98562 
        2.36233         47.0684         4.95385 
        2.36848         46.7351          4.9223 
        2.37462         46.5188         4.89109 
        2.38075         46.3367         4.86019 
        2.38689         46.1168         4.82952 
        2.39303            45.9         4.79912 
        2.39916         45.7003         4.76902 
        2.40529          45.492         4.73918 
        2.41143         45.2788         4.70957 
        2.41757         45.0162          4.6802 
         2.4237         44.8992         4.65114 
        2.42983         44.6139         4.62232 
        2.43598         44.3797         4.59368 
        2.44211         44.2355         4.56533 
        2.44823          43.977         4.53727 
        2.45437          43.788         4.50938 
        2.46052         43.4857          4.4817 
        2.46665         43.3471         4.45431 
        2.47279         43.1823         4.42715 
        2.47892         42.9934          4.4002 
        2.48507         42.7382         4.37345 
         2.4912         42.6062         4.34697 
