# k  (h/Mpc)    P(k)  (Mpc/h)^3    P_linear(k)  (Mpc/h)^3
     0.00783031         10046.1         10206.1 
       0.013688         12445.2         12387.1 
       0.019231         12373.4         12367.5 
      0.0249154         11115.7         11308.7 
      0.0312784         9651.66         9731.78 
      0.0375637         8306.68         8303.05 
      0.0433917         7186.04         7285.06 
      0.0492413         6521.77          6559.7 
      0.0555754         5859.64         6006.36 
      0.0619321         5566.97         5556.78 
       0.067871         5026.33         5135.21 
      0.0738098         4576.89         4672.87 
      0.0800417         4043.01         4158.63 
      0.0862327         3611.81          3666.6 
      0.0921407          3261.4         3260.25 
      0.0982031         2918.72         2932.98 
       0.104506         2744.35         2688.32 
       0.110769         2559.53         2518.16 
       0.116806         2411.11         2390.44 
       0.122832         2297.91         2268.55 
       0.129052         2121.79         2128.79 
       0.135211         1981.95         1972.36 
       0.141259         1861.62         1810.49 
       0.147318         1729.31         1655.18 
       0.153489         1579.36         1517.67 
       0.159709         1490.38         1407.27 
       0.165845         1431.63         1325.09 
       0.171974         1355.01         1262.47 
       0.178125         1295.55         1209.43 
       0.184229         1243.44         1157.68 
        0.19034         1161.21         1101.39 
       0.196428         1130.39         1039.99 
       0.202534         1083.14          975.89 
       0.208729         1022.21         912.948 
       0.214876         967.451         856.819 
       0.220989         934.117         809.547 
       0.227147         889.193         770.528 
        0.23329             855          738.27 
       0.239377           837.6         710.084 
       0.245482         782.805          682.93 
       0.251667         774.761         654.752 
       0.257832         744.527          625.48 
       0.263955         717.465          595.91 
       0.270079         689.703         567.054 
        0.27624         679.596         540.044 
       0.282372         651.343         515.965 
        0.28843         636.287         495.047 
       0.294538         605.246         476.443 
       0.300721         601.834         459.334 
        0.30691         574.405         443.121 
       0.313033         562.689         427.335 
       0.319153         545.619         411.584 
       0.325316         529.294         395.789 
        0.33145         513.629         380.468 
       0.337538         506.254         365.983 
       0.343633         490.087         352.476 
       0.349808         473.422         339.895 
       0.355968         469.053         328.366 
       0.362074         460.098         317.749 
       0.368217         447.285         307.621 
       0.374374         429.016         297.831 
       0.380519         425.769         288.286 
       0.386598         414.965         279.045 
       0.392688         411.839          270.05 
        0.39888         400.054         261.245 
       0.405048          391.41         252.903 
       0.411186         384.162         245.073 
       0.417313         376.885         237.698 
       0.423458         369.805         230.707 
       0.429607         362.589         224.046 
       0.435692          353.39         217.709 
       0.441815         350.514         211.535 
       0.447964         343.446         205.528 
       0.454126         332.809         199.691 
       0.460267         328.165         194.071 
       0.466387         324.408         188.686 
        0.47254         317.368         183.506 
       0.478662         316.422         178.574 
       0.484765         306.141         173.866 
       0.490885         302.691         169.339 
       0.497035         297.739         164.961 
       0.503198         291.867         160.726 
       0.509342         289.385         156.636 
       0.515458          285.77         152.693 
       0.521598         280.018         148.865 
       0.527764         275.523         145.151 
       0.533884         272.829         141.594 
           0.54         268.851         138.165 
       0.546137         267.506         134.846 
       0.552299         261.892         131.631 
       0.558452         259.778         128.533 
       0.564573          255.74         125.552 
       0.570708         250.823         122.658 
       0.576825         247.155         119.859 
       0.582926         244.442         117.152 
       0.589034         241.898         114.525 
       0.595184         239.441         111.962 
       0.601379         236.719         109.463 
       0.607522         232.425         107.063 
       0.613639         231.087         104.747 
       0.619772         225.926         102.496 
       0.625918         224.556         100.307 
       0.632068         221.408         98.1817 
       0.638161         220.309         96.1367 
         0.6443         216.689         94.1356 
       0.650464         214.627         92.1846 
       0.656582         212.854         90.3035 
       0.662703         211.077          88.475 
       0.668861         207.409         86.6876 
       0.675024             205         84.9488 
       0.681124         204.106         83.2759 
       0.687237         201.158         81.6453 
       0.693381         198.182         80.0512 
       0.699536         196.808         78.4973 
       0.705665         195.713         76.9917 
       0.711789         192.796         75.5274 
       0.717957          192.01         74.0914 
        0.72409         189.571         72.7011 
       0.730186         187.149         71.3552 
       0.736317         185.415         70.0365 
       0.742472         184.442         68.7465 
       0.748622         182.766         67.4906 
        0.75476         181.228          66.269 
       0.760888         178.795         65.0799 
       0.767043         178.369         63.9155 
       0.773185         176.412         62.7823 
       0.779291         173.239         61.6833 
       0.785407         172.671         60.6092 
       0.791564         171.132         59.5542 
       0.797719         168.764         58.5251 
       0.803834         167.966          57.527 
       0.809972         166.525         56.5488 
       0.816124         166.302         55.5914 
       0.822261         164.059         54.6589 
       0.828378         162.566         53.7508 
       0.834502         162.359         52.8628 
       0.840667         159.805         51.9892 
       0.846816         158.428         51.1381 
       0.852925         157.764         50.3115 
       0.859047         155.985         49.5016 
       0.865192         154.772         48.7071 
       0.871341         153.349         47.9296 
       0.877463         152.182         47.1727 
       0.883569          151.41         46.4343 
       0.889708         150.069          45.708 
       0.895864         148.408         44.9955 
       0.902008         147.657         44.2998 
       0.908149         147.023         43.6194 
       0.914301         145.342         42.9523 
       0.920448         144.251         42.2998 
       0.926574         143.471         41.6634 
       0.932687         143.128         41.0414 
       0.938823         141.135         40.4301 
       0.944975         139.802         39.8298 
       0.951105         139.268          39.244 
       0.957225         137.749         38.6711 
       0.963368         136.422         38.1077 
       0.969511         136.143         37.5556 
       0.975621         135.367         37.0175 
       0.981748           134.7         36.4887 
       0.987916         133.174         35.9669 
        0.99406         132.253         35.4574 
        1.00019         131.865         34.9588 
        1.00632         130.657         34.4703 
        1.01246         129.886         33.9905 
        1.01859         128.737         33.5207 
        1.02471         127.985         33.0604 
        1.03085         126.697         32.6073 
        1.03698         126.164         32.1636 
        1.04314         124.995         31.7264 
        1.04929         124.265         31.2983 
        1.05541         123.602         30.8799 
        1.06154         122.827         30.4682 
        1.06769         122.663         30.0634 
        1.07382         121.635         29.6673 
        1.07993         120.609         29.2793 
        1.08607         119.777         28.8967 
        1.09222         119.365         28.5205 
        1.09836         118.305         28.1516 
        1.10449         117.447         27.7896 
        1.11063         116.659         27.4337 
        1.11677         116.319         27.0841 
         1.1229         115.053         26.7413 
        1.12903         114.377         26.4042 
        1.13518         114.398         26.0726 
        1.14131         113.274          25.747 
        1.14745         112.592         25.4271 
        1.15359         111.855         25.1127 
        1.15973         111.532         24.8034 
        1.16584         110.375         24.5008 
        1.17197         109.908         24.2028 
        1.17811         109.249         23.9089 
        1.18424         108.682         23.6207 
        1.19038         108.176         23.3365 
        1.19652         107.428         23.0571 
        1.20267         106.719         22.7823 
        1.20881         105.984         22.5121 
        1.21495         105.382         22.2466 
        1.22108         104.899         21.9856 
         1.2272         103.934         21.7293 
        1.23334          103.57         21.4766 
        1.23949         102.636         21.2274 
        1.24562         102.328         20.9828 
        1.25174         101.467         20.7424 
        1.25789         101.108         20.5051 
        1.26402         100.539          20.272 
        1.27014         99.8746         20.0431 
        1.27628         99.4452          19.817 
        1.28244         98.7878          19.594 
        1.28858         98.5468         19.3748 
        1.29471         97.5929         19.1594 
        1.30084         97.1691         18.9475 
        1.30697         96.5924         18.7385 
        1.31312          96.215         18.5324 
        1.31925         95.4364           18.33 
        1.32537         95.0928         18.1309 
        1.33151         94.2094          17.934 
        1.33765         93.8149         17.7402 
        1.34378         93.2725         17.5496 
        1.34992         93.0691         17.3617 
        1.35606         92.4424         17.1762 
         1.3622         91.6358         16.9937 
        1.36833         91.4262         16.8143 
        1.37445          90.799         16.6376 
        1.38059         90.3113         16.4629 
        1.38675         89.6767         16.2904 
        1.39288         89.2767          16.121 
        1.39901          89.012          15.954 
        1.40515          88.385         15.7891 
         1.4113         87.7693         15.6266 
        1.41742         87.6714          15.467 
        1.42355         86.9064         15.3094 
         1.4297         86.5392         15.1535 
        1.43585         85.8476         14.9998 
        1.44198         85.5769         14.8489 
        1.44809         85.0612         14.7003 
        1.45423         84.5692         14.5532 
        1.46036         84.4027         14.4084 
        1.46649         83.8097         14.2655 
        1.47263         83.3155         14.1245 
        1.47877         83.1397         13.9854 
        1.48491         82.4259          13.848 
        1.49104          82.111         13.7127 
        1.49718         81.5903         13.5792 
        1.50333          81.164         13.4472 
        1.50947         80.7546         13.3172 
         1.5156           80.34         13.1892 
        1.52172         79.8787         13.0628 
        1.52787         79.7008         12.9379 
          1.534         79.1167         12.8147 
        1.54013           78.58         12.6933 
        1.54627         78.3389         12.5732 
        1.55241         77.8472         12.4547 
        1.55855          77.552         12.3379 
        1.56467         77.0626         12.2229 
         1.5708         76.7261         12.1091 
        1.57695         76.5602         11.9965 
        1.58308         75.7567         11.8857 
        1.58922         75.6897         11.7761 
        1.59535         75.3797          11.668 
         1.6015         74.7511         11.5611 
        1.60764         74.4754         11.4556 
        1.61376         74.1326         11.3518 
        1.61989         73.6609         11.2491 
        1.62604          73.461         11.1475 
        1.63218         73.0881         11.0472 
        1.63831         72.4874         10.9483 
        1.64444         72.2212         10.8506 
        1.65059         71.7871         10.7539 
        1.65673         71.4722         10.6585 
        1.66285         71.1287         10.5645 
        1.66898         70.7351         10.4717 
        1.67512         70.3016         10.3797 
        1.68127         70.0159         10.2888 
         1.6874         69.7029         10.1992 
        1.69353          69.381         10.1106 
        1.69967         68.8925          10.023 
        1.70581         68.7708          9.9364 
        1.71193         68.5684         9.85117 
        1.71806         67.9068         9.76677 
        1.72421         67.6926         9.68319 
        1.73035         67.3398         9.60068 
        1.73649         66.9792         9.51916 
        1.74262         66.7442         9.43865 
        1.74876         66.4089         9.35903 
        1.75489         65.9523         9.28049 
        1.76101         65.7838         9.20287 
        1.76715         65.3273         9.12604 
        1.77329         65.1146            9.05 
        1.77943         64.6224          8.9748 
        1.78557         64.4924         8.90056 
        1.79171         64.0919         8.82716 
        1.79785         63.8108         8.75456 
        1.80399         63.5768         8.68281 
        1.81012         63.3273         8.61196 
        1.81625          62.766         8.54193 
        1.82239         62.5472         8.47257 
        1.82853         62.2386         8.40402 
        1.83466         61.9994          8.3363 
        1.84078         61.6599          8.2694 
        1.84692         61.2154         8.20313 
        1.85306          61.013          8.1375 
         1.8592         60.6002         8.07269 
        1.86533         60.4376         8.00863 
        1.87147         60.0641         7.94518 
        1.87761         59.8331          7.8824 
        1.88375         59.5337         7.82037 
        1.88988         59.3847         7.75908 
        1.89601         58.9837         7.69841 
        1.90215         58.6925         7.63834 
        1.90829         58.5413         7.57895 
        1.91442         58.1612         7.52018 
        1.92056         57.7406         7.46209 
         1.9267         57.5982         7.40456 
        1.93284         57.2552          7.3476 
        1.93897         56.9563         7.29135 
        1.94509         56.6559         7.23581 
        1.95123         56.4782         7.18071 
        1.95737         56.2746         7.12614 
        1.96349         55.8416         7.07229 
        1.96964         55.7671         7.01883 
        1.97578         55.4345         6.96591 
        1.98192         55.1547         6.91365 
        1.98805         55.0288         6.86191 
        1.99419         54.5945          6.8107 
        2.00033         54.3585            6.76 
        2.00647         54.1578         6.70982 
         2.0126         53.7435         6.66024 
        2.01874         53.5816         6.61108 
        2.02488         53.4221         6.56238 
        2.03101         53.1159         6.51427 
        2.03714         52.8228         6.46668 
        2.04328          52.624         6.41951 
        2.04941         52.2827         6.37285 
        2.05554         51.9882          6.3267 
        2.06167         51.8438         6.28093 
        2.06781         51.6473         6.23562 
        2.07396         51.3134         6.19068 
        2.08009         51.1654         6.14627 
        2.08622         50.8435         6.10234 
        2.09237         50.5884         6.05876 
        2.09851          50.451          6.0156 
        2.10464         50.1451         5.97292 
        2.11077          49.899         5.93072 
        2.11691         49.6617         5.88883 
        2.12305         49.4533         5.84734 
        2.12918          49.176         5.80635 
        2.13531         48.9316         5.76575 
        2.14145         48.6933         5.72545 
         2.1476         48.5517         5.68548 
        2.15372         48.2488          5.6461 
        2.15985         48.0116         5.60706 
        2.16599         47.8273         5.56827 
        2.17213         47.6451         5.52989 
        2.17827         47.4007         5.49188 
         2.1844         47.1321         5.45427 
        2.19054         46.8598         5.41699 
        2.19666         46.6777         5.38012 
         2.2028         46.5391         5.34356 
        2.20893         46.3679         5.30732 
        2.21508         46.1435         5.27138 
        2.22122          45.865         5.23576 
        2.22736          45.704         5.20054 
        2.23349         45.5283         5.16566 
        2.23962         45.1316         5.13108 
        2.24577         44.9567         5.09678 
         2.2519         44.7223         5.06285 
        2.25802         44.6646         5.02929 
        2.26417         44.3948         4.99593 
        2.27031         44.2272         4.96285 
        2.27644         43.9521         4.93016 
        2.28257         43.7631         4.89777 
        2.28872         43.4688         4.86561 
        2.29486         43.3655         4.83374 
        2.30099         43.2111         4.80223 
        2.30712         42.9944         4.77098 
        2.31326         42.7472         4.73996 
         2.3194         42.5166         4.70924 
        2.32553         42.3551         4.67884 
        2.33166         42.1923         4.64871 
         2.3378         41.8885         4.61882 
        2.34394         41.6816         4.58917 
        2.35007         41.4836         4.55983 
        2.35619         41.3818         4.53078 
        2.36233         41.2723         4.50192 
        2.36848         40.9405         4.47325 
        2.37462         40.8073         4.44488 
        2.38075         40.6267          4.4168 
        2.38689         40.5207         4.38893 
        2.39303          40.281          4.3613 
        2.39916          40.069         4.33395 
        2.40529         39.8604         4.30683 
        2.41143         39.7415         4.27992 
        2.41757         39.5597         4.25323 
         2.4237         39.4312         4.22682 
        2.42983            39.2         4.20063 
        2.43598         38.9658          4.1746 
        2.44211         38.8174         4.14884 
        2.44823         38.6439         4.12334 
        2.45437         38.5149           4.098 
        2.46052         38.2094         4.07284 
        2.46665         38.1121         4.04794 
        2.47279         37.9748         4.02326 
        2.47892         37.7608         3.99877 
        2.48507         37.6015         3.97446 
         2.4912         37.4643          3.9504 
