# k  (h/Mpc)    P(k)  (Mpc/h)^3    P_linear(k)  (Mpc/h)^3
     0.00783031         2933.94         2980.31 
       0.013688         3610.34         3619.37 
       0.019231         3607.64         3614.72 
      0.0249154         3271.23         3305.88 
      0.0312784         2833.93         2845.27 
      0.0375637         2430.37         2427.76 
      0.0433917         2117.87         2130.23 
      0.0492413         1914.95          1918.2 
      0.0555754         1737.14         1756.45 
      0.0619321          1630.8         1625.02 
       0.067871         1488.68         1501.77 
      0.0738098         1354.42         1366.58 
      0.0800417          1200.7         1216.21 
      0.0862327         1065.96         1072.32 
      0.0921407         953.501         953.492 
      0.0982031         854.352         857.785 
       0.104506         793.883         786.236 
       0.110769         741.799         736.476 
       0.116806         698.638         699.125 
       0.122832         666.702         663.478 
       0.129052         620.008         622.607 
       0.135211         575.741         576.856 
       0.141259         534.328         529.515 
       0.147318         492.549         484.094 
       0.153489         449.988         443.876 
       0.159709         420.003          411.59 
       0.165845         400.207         387.554 
       0.171974         377.556          369.24 
       0.178125         362.363         353.728 
       0.184229         348.101         338.592 
        0.19034         326.055         322.131 
       0.196428         313.176         304.173 
       0.202534         298.334         285.424 
       0.208729         278.821         267.016 
       0.214876         261.032         250.599 
       0.220989         250.644         236.774 
       0.227147         236.382         225.362 
        0.23329         226.981         215.927 
       0.239377          220.26         207.684 
       0.245482         208.218         199.742 
       0.251667         203.396         191.501 
       0.257832         195.199         182.939 
       0.263955          186.64         174.291 
       0.270079         178.595         165.851 
        0.27624         173.282         157.951 
       0.282372         166.123         150.909 
        0.28843         159.216         144.791 
       0.294538         152.972          139.35 
       0.300721         149.926         134.346 
        0.30691         143.286         129.604 
       0.313033         139.012         124.987 
       0.319153         132.534          120.38 
       0.325316          129.89          115.76 
        0.33145         124.768         111.279 
       0.337538         121.743         107.042 
       0.343633         117.313         103.092 
       0.349808         113.716         99.4125 
       0.355968         110.786         96.0404 
       0.362074         107.341         92.9352 
       0.368217         104.248         89.9729 
       0.374374         101.144         87.1096 
       0.380519         98.6524          84.318 
       0.386598         95.9011          81.615 
       0.392688         93.9084         78.9842 
        0.39888         91.1624         76.4088 
       0.405048         88.9061          73.969 
       0.411186         86.8184          71.679 
       0.417313         84.1804         69.5221 
       0.423458          82.135         67.4773 
       0.429607         80.0061         65.5292 
       0.435692         77.3997         63.6756 
       0.441815         76.4292         61.8699 
       0.447964         75.1059         60.1128 
       0.454126         71.8958         58.4058 
       0.460267         70.8301         56.7618 
       0.466387         69.0426         55.1871 
        0.47254         67.9012         53.6718 
       0.478662         66.8125         52.2295 
       0.484765         64.8593         50.8526 
       0.490885         63.5027         49.5283 
       0.497035         62.6705         48.2479 
       0.503198         60.9636         47.0092 
       0.509342         59.4487          45.813 
       0.515458         58.3741         44.6598 
       0.521598         57.4802           43.54 
       0.527764         56.3724         42.4539 
       0.533884         55.4188         41.4136 
           0.54         54.2402         40.4107 
       0.546137         53.5056         39.4398 
       0.552299          52.684         38.4996 
       0.558452         51.1335         37.5935 
       0.564573         50.2983         36.7216 
       0.570708         49.6078          35.875 
       0.576825         48.5459         35.0564 
       0.582926         47.5784         34.2647 
       0.589034         46.4577         33.4963 
       0.595184         45.8925         32.7467 
       0.601379         45.1619         32.0158 
       0.607522         44.1758         31.3139 
       0.613639         43.9016         30.6366 
       0.619772          42.787         29.9781 
       0.625918         42.5395          29.338 
       0.632068         41.8798         28.7163 
       0.638161         41.1107         28.1182 
         0.6443         40.3627         27.5329 
       0.650464         39.7176         26.9623 
       0.656582         39.4221         26.4121 
       0.662703         38.6329         25.8773 
       0.668861         38.0267         25.3545 
       0.675024         37.4247         24.8459 
       0.681124         36.7821         24.3566 
       0.687237         36.1622         23.8797 
       0.693381          35.889         23.4135 
       0.699536         35.0525          22.959 
       0.705665          35.088         22.5186 
       0.711789         34.2205         22.0903 
       0.717957          33.823         21.6703 
        0.72409         33.3564         21.2637 
       0.730186         32.8537         20.8701 
       0.736317         32.5818         20.4844 
       0.742472         32.0049         20.1071 
       0.748622         31.7349         19.7397 
        0.75476         31.2372         19.3825 
       0.760888         30.7679         19.0346 
       0.767043         30.4289         18.6941 
       0.773185         29.9416         18.3626 
       0.779291         29.8019         18.0412 
       0.785407         29.4695         17.7271 
       0.791564         28.9434         17.4185 
       0.797719         28.3464         17.1175 
       0.803834         28.3168         16.8256 
       0.809972         28.0127         16.5395 
       0.816124         27.4107         16.2594 
       0.822261         27.2168         15.9867 
       0.828378         26.9789         15.7211 
       0.834502         26.6833         15.4614 
       0.840667         26.3659         15.2059 
       0.846816         25.9301         14.9569 
       0.852925         25.7024         14.7152 
       0.859047         25.4067         14.4783 
       0.865192         25.1684         14.2459 
       0.871341         25.0171         14.0185 
       0.877463         24.5362         13.7972 
       0.883569         24.2847         13.5812 
       0.889708         23.9994         13.3687 
       0.895864         23.8044         13.1603 
       0.902008         23.6196         12.9569 
       0.908149         23.3669         12.7579 
       0.914301         23.2693         12.5627 
       0.920448         22.8088         12.3719 
       0.926574         22.6468         12.1858 
       0.932687         22.4045         12.0039 
       0.938823         22.1108          11.825 
       0.944975         21.9263         11.6495 
       0.951105          21.738         11.4781 
       0.957225          21.498         11.3106 
       0.963368         21.3649         11.1458 
       0.969511         21.1699         10.9843 
       0.975621         20.9974         10.8269 
       0.981748         20.7005         10.6723 
       0.987916         20.5922         10.5197 
        0.99406          20.346         10.3706 
        1.00019         20.0936         10.2248 
        1.00632         20.0123         10.0819 
        1.01246          19.849         9.94161 
        1.01859         19.5469          9.8042 
        1.02471         19.4986         9.66957 
        1.03085         19.3115         9.53703 
        1.03698         19.0069         9.40726 
        1.04314         18.9032         9.27938 
        1.04929          18.696         9.15418 
        1.05541         18.5063         9.03181 
        1.06154         18.4095         8.91138 
        1.06769         18.3011         8.79298 
        1.07382         18.0831         8.67714 
        1.07993         17.9903         8.56365 
        1.08607         17.7685         8.45174 
        1.09222          17.673         8.34173 
        1.09836         17.4553         8.23382 
        1.10449         17.3588         8.12796 
        1.11063          17.162         8.02385 
        1.11677         17.1044         7.92161 
         1.1229         17.0077         7.82135 
        1.12903          16.783         7.72275 
        1.13518         16.6068         7.62577 
        1.14131         16.5596         7.53052 
        1.14745         16.4241         7.43697 
        1.15359         16.3237         7.34499 
        1.15973         16.1595         7.25454 
        1.16584         15.9514         7.16603 
        1.17197         15.9337         7.07888 
        1.17811          15.771         6.99291 
        1.18424         15.6396         6.90863 
        1.19038          15.582          6.8255 
        1.19652         15.4438         6.74378 
        1.20267         15.3105         6.66341 
        1.20881         15.2424         6.58436 
        1.21495         15.1359         6.50674 
        1.22108         14.9819         6.43038 
         1.2272         14.8544         6.35544 
        1.23334         14.7611         6.28152 
        1.23949         14.6235         6.20861 
        1.24562         14.5815         6.13707 
        1.25174         14.4864         6.06678 
        1.25789         14.3713         5.99737 
        1.26402         14.3141         5.92918 
        1.27014         14.1719         5.86223 
        1.27628         14.0099         5.79611 
        1.28244         13.9596         5.73089 
        1.28858          13.928         5.66677 
        1.29471          13.782         5.60378 
        1.30084          13.661          5.5418 
        1.30697         13.6012         5.48068 
        1.31312         13.4572         5.42039 
        1.31925          13.369          5.3612 
        1.32537         13.3297         5.30296 
        1.33151         13.2223         5.24537 
        1.33765          13.144         5.18868 
        1.34378         13.0625         5.13294 
        1.34992         12.9272         5.07798 
        1.35606         12.9018         5.02372 
         1.3622          12.819         4.97035 
        1.36833          12.702         4.91788 
        1.37445         12.6583          4.8662 
        1.38059         12.5785         4.81511 
        1.38675         12.4475         4.76463 
        1.39288         12.4159         4.71509 
        1.39901         12.3043         4.66627 
        1.40515          12.252         4.61804 
         1.4113         12.1696         4.57051 
        1.41742         12.0861         4.52383 
        1.42355         12.0147         4.47772 
         1.4297         11.9595         4.43212 
        1.43585         11.9126         4.38717 
        1.44198         11.8176         4.34302 
        1.44809         11.7505         4.29957 
        1.45423         11.6707         4.25655 
        1.46036         11.6081          4.2142 
        1.46649         11.5574         4.17241 
        1.47263         11.4508         4.13116 
        1.47877         11.3951         4.09048 
        1.48491         11.3448         4.05029 
        1.49104         11.2833         4.01072 
        1.49718         11.2107         3.97166 
        1.50333          11.158         3.93305 
        1.50947         11.0878         3.89504 
         1.5156         11.0107         3.85759 
        1.52172         10.9656         3.82064 
        1.52787         10.8916         3.78409 
          1.534         10.8219         3.74807 
        1.54013          10.758         3.71256 
        1.54627         10.6889         3.67745 
        1.55241         10.6497         3.64278 
        1.55855         10.5967         3.60862 
        1.56467         10.5241         3.57498 
         1.5708         10.5115         3.54169 
        1.57695         10.4146         3.50877 
        1.58308         10.3623         3.47634 
        1.58922         10.3206         3.44431 
        1.59535         10.2714         3.41269 
         1.6015         10.1925         3.38143 
        1.60764         10.1334         3.35057 
        1.61376          10.115         3.32019 
        1.61989         10.0312         3.29016 
        1.62604          10.006         3.26043 
        1.63218         9.94977         3.23109 
        1.63831         9.90708         3.20218 
        1.64444         9.83278         3.17362 
        1.65059         9.77182         3.14534 
        1.65673         9.76162         3.11743 
        1.66285         9.65847         3.08994 
        1.66898         9.63946         3.06277 
        1.67512          9.5944         3.03588 
        1.68127         9.53787         3.00928 
         1.6874         9.49899         2.98307 
        1.69353         9.43512         2.95718 
        1.69967         9.39399         2.93154 
        1.70581         9.35495         2.90622 
        1.71193         9.29272         2.88129 
        1.71806         9.27376          2.8566 
        1.72421         9.20266         2.83216 
        1.73035         9.17913         2.80803 
        1.73649         9.13572         2.78418 
        1.74262         9.08812         2.76064 
        1.74876         9.05517         2.73735 
        1.75489         9.00719         2.71438 
        1.76101         8.93834         2.69168 
        1.76715         8.93187          2.6692 
        1.77329         8.86036         2.64696 
        1.77943         8.81757         2.62497 
        1.78557         8.80324         2.60325 
        1.79171         8.76296         2.58178 
        1.79785          8.6959         2.56055 
        1.80399         8.66014         2.53957 
        1.81012         8.63175         2.51884 
        1.81625         8.58105         2.49836 
        1.82239         8.54776         2.47808 
        1.82853         8.49193         2.45803 
        1.83466         8.46031         2.43822 
        1.84078          8.4101         2.41865 
        1.84692         8.40225         2.39927 
        1.85306         8.34795         2.38007 
         1.8592          8.3051         2.36112 
        1.86533         8.27763         2.34238 
        1.87147         8.24152         2.32382 
        1.87761         8.21091         2.30546 
        1.88375         8.15236         2.28732 
        1.88988         8.14785         2.26939 
        1.89601         8.09963         2.25165 
        1.90215         8.05603         2.23408 
        1.90829         8.02068         2.21671 
        1.91442         7.98635         2.19952 
        1.92056         7.96268         2.18253 
         1.9267          7.9198          2.1657 
        1.93284         7.87978         2.14904 
        1.93897         7.83892         2.13259 
        1.94509         7.81624         2.11634 
        1.95123         7.78296         2.10023 
        1.95737         7.74551         2.08427 
        1.96349         7.71828         2.06852 
        1.96964         7.67495         2.05288 
        1.97578         7.64452         2.03741 
        1.98192         7.61271         2.02212 
        1.98805         7.58953         2.00699 
        1.99419         7.55038         1.99201 
        2.00033         7.53524         1.97718 
        2.00647         7.49562          1.9625 
         2.0126         7.45784           1.948 
        2.01874         7.43223         1.93362 
        2.02488         7.39389         1.91938 
        2.03101         7.36808         1.90531 
        2.03714         7.32936         1.89139 
        2.04328         7.30887         1.87759 
        2.04941         7.26758         1.86395 
        2.05554         7.25017         1.85045 
        2.06167         7.20841         1.83706 
        2.06781         7.19672         1.82381 
        2.07396         7.17086         1.81067 
        2.08009         7.13349         1.79767 
        2.08622         7.09271         1.78483 
        2.09237         7.08379         1.77208 
        2.09851         7.06302         1.75946 
        2.10464         7.02271         1.74697 
        2.11077         6.97867         1.73463 
        2.11691          6.9545         1.72238 
        2.12305         6.93459         1.71024 
        2.12918         6.91885         1.69825 
        2.13531         6.88219         1.68638 
        2.14145         6.86023         1.67459 
         2.1476         6.82516          1.6629 
        2.15372         6.80401         1.65138 
        2.15985         6.79307         1.63996 
        2.16599         6.75108         1.62862 
        2.17213          6.7346         1.61739 
        2.17827         6.71098         1.60628 
         2.1844          6.6794         1.59528 
        2.19054          6.6352         1.58437 
        2.19666         6.62645         1.57359 
         2.2028         6.60145          1.5629 
        2.20893         6.58287          1.5523 
        2.21508         6.54627         1.54178 
        2.22122         6.51805         1.53137 
        2.22736         6.50119         1.52107 
        2.23349         6.47671         1.51086 
        2.23962         6.46092         1.50075 
        2.24577         6.42617         1.49072 
         2.2519         6.41148          1.4808 
        2.25802         6.37898         1.47098 
        2.26417           6.357         1.46122 
        2.27031         6.33003         1.45154 
        2.27644          6.3079         1.44198 
        2.28257         6.28714         1.43251 
        2.28872         6.26493          1.4231 
        2.29486         6.24497         1.41379 
        2.30099         6.22804         1.40457 
        2.30712         6.20393         1.39543 
        2.31326          6.1639         1.38636 
         2.3194         6.14892         1.37737 
        2.32553         6.13807         1.36848 
        2.33166          6.1133         1.35967 
         2.3378         6.08608         1.35092 
        2.34394         6.06622         1.34225 
        2.35007         6.03702         1.33367 
        2.35619         6.01787         1.32517 
        2.36233         5.99713         1.31673 
        2.36848         5.98003         1.30835 
        2.37462         5.96208         1.30005 
        2.38075         5.94113         1.29184 
        2.38689         5.91966         1.28368 
        2.39303         5.89068          1.2756 
        2.39916         5.87496          1.2676 
        2.40529         5.85597         1.25967 
        2.41143         5.83103          1.2518 
        2.41757         5.83035           1.244 
         2.4237         5.80119         1.23627 
        2.42983         5.77694         1.22861 
        2.43598         5.76319           1.221 
        2.44211         5.73831         1.21346 
        2.44823         5.72428         1.20601 
        2.45437         5.70431         1.19859 
        2.46052         5.67458         1.19124 
        2.46665         5.66081         1.18395 
        2.47279         5.63583         1.17673 
        2.47892         5.61375         1.16957 
        2.48507         5.60217         1.16246 
         2.4912         5.57743         1.15542 
