# k  (h/Mpc)    P(k)  (Mpc/h)^3    P_linear(k)  (Mpc/h)^3
     0.00783031         18487.8         18765.4 
       0.013688         23001.9         22768.5 
       0.019231         22766.7         22728.6 
      0.0249154         20293.2         20780.5 
      0.0312784           17639         17881.3 
      0.0375637         15224.6         15255.3 
      0.0433917         13090.8         13384.4 
      0.0492413         11914.5         12051.4 
      0.0555754         10614.6         11034.5 
      0.0619321         10167.6         10208.4 
       0.067871         9102.03         9433.78 
      0.0738098         8299.85         8584.33 
      0.0800417         7314.24         7639.56 
      0.0862327         6569.24         6735.63 
      0.0921407         5984.08         5989.11 
      0.0982031         5362.97         5387.88 
       0.104506          5079.9         4938.41 
       0.110769         4733.74         4625.81 
       0.116806         4475.69         4391.17 
       0.122832         4249.78         4167.25 
       0.129052         3909.87         3910.51 
       0.135211         3665.78         3623.14 
       0.141259         3478.25         3325.78 
       0.147318         3257.15         3040.48 
       0.153489         2980.02         2787.87 
       0.159709         2827.34         2585.08 
       0.165845         2738.93         2434.11 
       0.171974          2602.3         2319.07 
       0.178125         2480.82         2221.64 
       0.184229         2368.29         2126.57 
        0.19034         2242.16         2023.18 
       0.196428         2184.42         1910.39 
       0.202534         2089.55         1792.63 
       0.208729         1992.07         1677.01 
       0.214876         1915.09         1573.91 
       0.220989         1848.77         1487.07 
       0.227147         1777.97          1415.4 
        0.23329         1710.87         1356.14 
       0.239377         1686.38         1304.36 
       0.245482         1583.99         1254.48 
       0.251667         1574.47         1202.72 
       0.257832         1510.39         1148.95 
       0.263955         1458.68         1094.63 
       0.270079         1408.95         1041.63 
        0.27624         1391.25         992.013 
       0.282372         1334.64          947.78 
        0.28843         1330.08         909.357 
       0.294538         1264.86         875.182 
       0.300721         1256.46         843.755 
        0.30691         1210.07         813.972 
       0.313033         1185.22         784.975 
       0.319153         1167.85         756.041 
       0.325316         1129.27         727.027 
        0.33145         1104.87         698.884 
       0.337538          1083.5         672.275 
       0.343633         1062.21         647.464 
       0.349808         1026.64         624.355 
       0.355968         1019.03         603.176 
       0.362074         1010.44         583.674 
       0.368217         977.512         565.069 
       0.374374         942.837         547.087 
       0.380519         945.352         529.554 
       0.386598         917.115         512.578 
       0.392688         913.439         496.055 
        0.39888          887.64          479.88 
       0.405048         877.796         464.557 
       0.411186           865.6         450.174 
       0.417313         847.357         436.628 
       0.423458         831.902         423.786 
       0.429607         822.843         411.551 
       0.435692         805.743          399.91 
       0.441815         798.329         388.569 
       0.447964         782.693         377.534 
       0.454126         776.938         366.812 
       0.460267         757.028         356.488 
       0.466387          747.58         346.598 
        0.47254         745.109         337.081 
       0.478662         735.803         328.023 
       0.484765         714.874         319.375 
       0.490885         710.593         311.058 
       0.497035         695.808         303.016 
       0.503198         691.699         295.237 
       0.509342         684.467         287.724 
       0.515458         680.849         280.482 
       0.521598         663.838         273.449 
       0.527764         652.761         266.628 
       0.533884         649.988         260.094 
           0.54         643.976         253.795 
       0.546137         637.455         247.698 
       0.552299          629.77         241.793 
       0.558452         624.399         236.102 
       0.564573         617.234         230.626 
       0.570708         610.029         225.309 
       0.576825         594.486         220.168 
       0.582926         596.962         215.196 
       0.589034         590.571          210.37 
       0.595184         585.397         205.662 
       0.601379         577.028         201.072 
       0.607522         568.848         196.663 
       0.613639         568.431          192.41 
       0.619772         557.605         188.274 
       0.625918         553.885         184.254 
       0.632068         546.657         180.349 
       0.638161         544.305         176.593 
         0.6443         535.617         172.917 
       0.650464         533.755         169.333 
       0.656582         528.353         165.878 
       0.662703         526.906         162.519 
       0.668861          518.44         159.236 
       0.675024         514.082         156.042 
       0.681124          510.45         152.969 
       0.687237         506.635         149.974 
       0.693381         499.742         147.046 
       0.699536         491.778         144.191 
       0.705665         491.275         141.426 
       0.711789         488.803         138.736 
       0.717957         484.422         136.098 
        0.72409           482.1         133.544 
       0.730186             475         131.072 
       0.736317         472.065          128.65 
       0.742472         469.141          126.28 
       0.748622         464.183         123.973 
        0.75476         457.436         121.729 
       0.760888         453.727         119.545 
       0.767043         453.588         117.406 
       0.773185         449.462         115.324 
       0.779291         444.469         113.306 
       0.785407         441.358         111.333 
       0.791564         436.775         109.395 
       0.797719         435.077         107.504 
       0.803834         429.563         105.671 
       0.809972         428.939         103.874 
       0.816124         427.433         102.115 
       0.822261         421.698         100.403 
       0.828378         419.124         98.7345 
       0.834502         414.604         97.1033 
       0.840667         411.714         95.4987 
       0.846816         409.943         93.9352 
       0.852925         407.043         92.4169 
       0.859047          405.02         90.9293 
       0.865192         399.881         89.4697 
       0.871341         396.612         88.0416 
       0.877463         396.685         86.6513 
       0.883569         392.526         85.2948 
       0.889708          390.05         83.9607 
       0.895864         389.251         82.6519 
       0.902008         385.557          81.374 
       0.908149         380.263         80.1242 
       0.914301         378.634         78.8987 
       0.920448         376.918         77.7003 
       0.926574         371.139         76.5311 
       0.932687         370.635         75.3887 
       0.938823         367.273         74.2657 
       0.944975         367.307         73.1631 
       0.951105         363.213         72.0871 
       0.957225         360.849         71.0346 
       0.963368         356.608         69.9998 
       0.969511         355.768         68.9856 
       0.975621          353.85         67.9972 
       0.981748         351.422         67.0258 
       0.987916         349.617         66.0673 
        0.99406         344.547         65.1314 
        1.00019         342.813         64.2156 
        1.00632         341.608         63.3183 
        1.01246         338.767          62.437 
        1.01859         338.798          61.574 
        1.02471         333.954         60.7285 
        1.03085         332.734         59.8961 
        1.03698         331.019         59.0811 
        1.04314         328.527         58.2779 
        1.04929         325.229         57.4916 
        1.05541         326.109         56.7231 
        1.06154         320.636         55.9668 
        1.06769         319.781         55.2232 
        1.07382         317.207         54.4956 
        1.07993         315.781         53.7829 
        1.08607         314.919         53.0801 
        1.09222         311.242         52.3892 
        1.09836         309.362         51.7114 
        1.10449         307.157         51.0466 
        1.11063         303.665         50.3927 
        1.11677         304.307         49.7507 
         1.1229         301.591          49.121 
        1.12903         299.939         48.5017 
        1.13518         296.982         47.8926 
        1.14131         295.611         47.2945 
        1.14745         294.259         46.7069 
        1.15359         292.246         46.1293 
        1.15973         290.388         45.5612 
        1.16584         288.126         45.0053 
        1.17197         288.019          44.458 
        1.17811          284.51         43.9181 
        1.18424         282.452         43.3887 
        1.19038         281.728         42.8667 
        1.19652         279.494         42.3534 
        1.20267         278.841         41.8486 
        1.20881         276.471         41.3522 
        1.21495         274.528         40.8647 
        1.22108         272.869         40.3851 
         1.2272         271.302         39.9145 
        1.23334         270.248         39.4503 
        1.23949         267.372         38.9924 
        1.24562         266.596         38.5431 
        1.25174          265.17         38.1016 
        1.25789         262.827         37.6657 
        1.26402         260.966         37.2374 
        1.27014         259.482         36.8169 
        1.27628         257.659         36.4017 
        1.28244         257.672         35.9921 
        1.28858         255.249         35.5894 
        1.29471         254.071         35.1938 
        1.30084         251.663         34.8045 
        1.30697         250.895         34.4206 
        1.31312         248.267          34.042 
        1.31925          246.95         33.6703 
        1.32537         246.534         33.3045 
        1.33151         244.154         32.9428 
        1.33765         242.212         32.5868 
        1.34378         241.692         32.2367 
        1.34992         240.351         31.8916 
        1.35606         239.454         31.5508 
         1.3622         237.011         31.2156 
        1.36833         235.724         30.8861 
        1.37445           234.3         30.5615 
        1.38059         232.582         30.2406 
        1.38675         231.636         29.9236 
        1.39288         230.439         29.6124 
        1.39901         229.046         29.3059 
        1.40515         227.809         29.0029 
         1.4113         226.395         28.7044 
        1.41742         224.621         28.4113 
        1.42355         223.616         28.1217 
         1.4297         221.857         27.8353 
        1.43585         220.715          27.553 
        1.44198         220.167         27.2758 
        1.44809         218.322         27.0028 
        1.45423         217.205         26.7327 
        1.46036         215.916         26.4667 
        1.46649         214.619         26.2042 
        1.47263         213.504         25.9452 
        1.47877         211.856         25.6897 
        1.48491         209.904         25.4373 
        1.49104         209.498         25.1888 
        1.49718         207.744         24.9434 
        1.50333         207.202          24.701 
        1.50947         205.685         24.4623 
         1.5156         204.096         24.2271 
        1.52172         203.363          23.995 
        1.52787         201.632         23.7655 
          1.534         201.227         23.5392 
        1.54013         199.484         23.3162 
        1.54627         198.491         23.0957 
        1.55241         197.412          22.878 
        1.55855         195.649         22.6634 
        1.56467         195.063         22.4522 
         1.5708          194.03         22.2431 
        1.57695         193.003         22.0363 
        1.58308         191.619         21.8327 
        1.58922         190.258         21.6315 
        1.59535         188.856         21.4329 
         1.6015         188.093         21.2366 
        1.60764         187.173         21.0428 
        1.61376         186.213          20.852 
        1.61989         185.198         20.6634 
        1.62604         183.797         20.4767 
        1.63218         183.082         20.2924 
        1.63831         181.529         20.1109 
        1.64444         180.749         19.9315 
        1.65059         179.907         19.7538 
        1.65673         178.748         19.5786 
        1.66285         177.293         19.4059 
        1.66898         176.649         19.2353 
        1.67512         175.818         19.0664 
        1.68127         174.174         18.8994 
         1.6874          173.63         18.7347 
        1.69353          172.39         18.5722 
        1.69967         171.168         18.4111 
        1.70581         170.488         18.2521 
        1.71193         169.132         18.0955 
        1.71806         168.617         17.9405 
        1.72421         167.477          17.787 
        1.73035         166.791         17.6354 
        1.73649         165.762         17.4857 
        1.74262         164.763         17.3378 
        1.74876         163.517         17.1915 
        1.75489         162.925         17.0472 
        1.76101          161.38         16.9047 
        1.76715         161.175         16.7636 
        1.77329         159.968         16.6239 
        1.77943         159.354         16.4857 
        1.78557         158.264         16.3494 
        1.79171         157.561         16.2145 
        1.79785         156.331         16.0812 
        1.80399         155.616         15.9494 
        1.81012         154.742         15.8192 
        1.81625         154.115         15.6906 
        1.82239         152.888         15.5632 
        1.82853         152.307         15.4373 
        1.83466          151.36         15.3129 
        1.84078         150.579           15.19 
        1.84692         149.329         15.0682 
        1.85306         149.008         14.9477 
         1.8592         147.987         14.8287 
        1.86533           147.5          14.711 
        1.87147         146.287         14.5944 
        1.87761          145.28         14.4791 
        1.88375         144.599         14.3652 
        1.88988         143.275         14.2526 
        1.89601         143.171         14.1411 
        1.90215          142.25         14.0308 
        1.90829         141.197         13.9217 
        1.91442         140.759         13.8138 
        1.92056         139.766          13.707 
         1.9267         138.913         13.6014 
        1.93284         138.006         13.4967 
        1.93897          137.57         13.3934 
        1.94509         136.857         13.2914 
        1.95123         136.143         13.1902 
        1.95737         135.236         13.0899 
        1.96349         134.583          12.991 
        1.96964         133.624         12.8928 
        1.97578         132.827         12.7956 
        1.98192         132.204         12.6996 
        1.98805         131.619         12.6046 
        1.99419         130.701         12.5105 
        2.00033         130.102         12.4174 
        2.00647         129.409         12.3252 
         2.0126         128.495         12.2341 
        2.01874         127.932         12.1438 
        2.02488         127.607         12.0544 
        2.03101         126.261          11.966 
        2.03714         125.917         11.8786 
        2.04328         124.973         11.7919 
        2.04941         124.521         11.7062 
        2.05554         123.572         11.6214 
        2.06167         123.163         11.5374 
        2.06781          122.22         11.4541 
        2.07396         121.827         11.3716 
        2.08009         120.975           11.29 
        2.08622         120.079         11.2093 
        2.09237         119.748         11.1293 
        2.09851         118.986           11.05 
        2.10464         118.598         10.9716 
        2.11077         117.897         10.8941 
        2.11691         117.256         10.8171 
        2.12305         116.715         10.7409 
        2.12918          115.89         10.6656 
        2.13531         115.206         10.5911 
        2.14145         114.592          10.517 
         2.1476          113.74         10.4436 
        2.15372         113.587         10.3713 
        2.15985         112.805         10.2995 
        2.16599         112.112         10.2283 
        2.17213         111.625         10.1578 
        2.17827         110.891          10.088 
         2.1844         110.241         10.0189 
        2.19054         109.844         9.95042 
        2.19666         109.109         9.88269 
         2.2028          108.52         9.81553 
        2.20893         108.142         9.74896 
        2.21508         107.371         9.68294 
        2.22122         106.838         9.61751 
        2.22736          106.32         9.55282 
        2.23349         105.845         9.48875 
        2.23962         105.284         9.42523 
        2.24577         104.527         9.36223 
         2.2519         104.142          9.2999 
        2.25802         103.307         9.23824 
        2.26417         103.088         9.17697 
        2.27031         102.337          9.1162 
        2.27644          101.88         9.05616 
        2.28257         101.295         8.99666 
        2.28872         100.794         8.93759 
        2.29486         100.143         8.87906 
        2.30099         99.6193         8.82117 
        2.30712         99.0915         8.76377 
        2.31326         98.5736         8.70679 
         2.3194         98.0497         8.65035 
        2.32553         97.5246         8.59451 
        2.33166         96.9912         8.53918 
         2.3378         96.6882         8.48426 
        2.34394          96.062         8.42981 
        2.35007         95.5301         8.37591 
        2.35619         95.0765         8.32255 
        2.36233         94.6211         8.26953 
        2.36848         94.0133         8.21686 
        2.37462         93.6589         8.16476 
        2.38075         93.0027         8.11317 
        2.38689         92.5484         8.06197 
        2.39303          92.018         8.01123 
        2.39916         91.6224         7.96098 
        2.40529         91.4045         7.91116 
        2.41143         90.7085         7.86174 
        2.41757         90.2102         7.81272 
         2.4237         89.7121          7.7642 
        2.42983         89.2495          7.7161 
        2.43598         88.7017         7.66828 
        2.44211         88.4547         7.62095 
        2.44823         87.8992         7.57413 
        2.45437         87.3476         7.52757 
        2.46052         86.7928         7.48136 
        2.46665         86.6209         7.43563 
        2.47279         86.0564         7.39029 
        2.47892         85.6251          7.3453 
        2.48507         85.2421         7.30065 
         2.4912         84.8299         7.25645 
