# k  (h/Mpc)    Pcb(k)  (Mpc/h)^3    Pcb_linear(k)  (Mpc/h)^3
     0.00783031         2076.25         2098.26 
       0.013688         2551.61          2551.3 
       0.019231         2552.03         2550.32 
      0.0249154         2318.02         2333.88 
      0.0312784         2007.08         2009.52 
      0.0375637         1720.14         1715.08 
      0.0433917         1500.91         1505.15 
      0.0492413         1356.16         1355.53 
      0.0555754         1232.22         1241.36 
      0.0619321         1154.02         1148.57 
       0.067871         1055.58         1061.52 
      0.0738098         960.343         966.008 
      0.0800417         851.946         859.748 
      0.0862327          755.53         758.061 
      0.0921407         674.855         674.072 
      0.0982031         605.021         606.426 
       0.104506          560.87         555.855 
       0.110769         524.254         520.684 
       0.116806         494.082         494.284 
       0.122832         471.288         469.088 
       0.129052         438.937         440.196 
       0.135211         407.246         407.853 
       0.141259         377.166         374.385 
       0.147318         347.234         342.273 
       0.153489         317.345         313.839 
       0.159709         295.622         291.014 
       0.165845         281.254          274.02 
       0.171974         265.424         261.073 
       0.178125         254.771         250.106 
       0.184229         244.671         239.405 
        0.19034         229.716         227.767 
       0.196428         219.884          215.07 
       0.202534         209.036         201.814 
       0.208729         195.163         188.799 
       0.214876           182.6         177.192 
       0.220989         174.989         167.417 
       0.227147         164.998         159.348 
        0.23329         158.356         152.677 
       0.239377         153.356         146.848 
       0.245482         145.529         141.233 
       0.251667         141.706         135.406 
       0.257832         135.768         129.353 
       0.263955         129.718         123.238 
       0.270079         123.998          117.27 
        0.27624          119.89         111.685 
       0.282372         114.875         106.705 
        0.28843         109.945         102.379 
       0.294538         105.739          98.532 
       0.300721         103.301         94.9939 
        0.30691         98.8225         91.6409 
       0.313033         95.7142         88.3765 
       0.319153         91.1895         85.1187 
       0.325316          89.416         81.8526 
        0.33145         85.8237         78.6842 
       0.337538         83.4163         75.6884 
       0.343633          80.312         72.8952 
       0.349808         77.8772         70.2937 
       0.355968         75.6556         67.9091 
       0.362074         73.2474         65.7137 
       0.368217         71.1022          63.619 
       0.374374         68.9075         61.5944 
       0.380519         67.1403         59.6207 
       0.386598          65.247         57.7093 
       0.392688         63.7674         55.8491 
        0.39888         61.8047         54.0281 
       0.405048         60.2367         52.3029 
       0.411186         58.7563         50.6837 
       0.417313         56.8469         49.1587 
       0.423458         55.4079         47.7128 
       0.429607         53.9183         46.3353 
       0.435692         52.2248         45.0246 
       0.441815         51.3679         43.7479 
       0.447964         50.4549         42.5054 
       0.454126         48.4078         41.2984 
       0.460267         47.5672          40.136 
       0.466387         46.1898         39.0226 
        0.47254         45.4415         37.9511 
       0.478662         44.6343         36.9313 
       0.484765         43.3001         35.9576 
       0.490885         42.3267         35.0212 
       0.497035          41.764         34.1158 
       0.503198         40.6405           33.24 
       0.509342          39.597         32.3942 
       0.515458         38.7833         31.5788 
       0.521598         38.1266          30.787 
       0.527764          37.314          30.019 
       0.533884         36.6714         29.2834 
           0.54         35.8665         28.5743 
       0.546137         35.2937         27.8878 
       0.552299         34.7168          27.223 
       0.558452          33.646         26.5822 
       0.564573         33.1526         25.9657 
       0.570708         32.6143         25.3671 
       0.576825         31.8213         24.7883 
       0.582926         31.2148         24.2285 
       0.589034         30.4142         23.6851 
       0.595184         30.0237         23.1551 
       0.601379         29.4627         22.6383 
       0.607522         28.9166          22.142 
       0.613639          28.636          21.663 
       0.619772         27.8865         21.1975 
       0.625918          27.733         20.7448 
       0.632068         27.2724         20.3052 
       0.638161         26.6917         19.8823 
         0.6443         26.1629         19.4684 
       0.650464         25.7054          19.065 
       0.656582         25.5336         18.6759 
       0.662703           25.04         18.2978 
       0.668861         24.5815         17.9281 
       0.675024         24.1482         17.5685 
       0.681124         23.7324         17.2225 
       0.687237         23.3401         16.8853 
       0.693381         23.1273         16.5556 
       0.699536         22.5296         16.2343 
       0.705665         22.4453         15.9229 
       0.711789         21.9626           15.62 
       0.717957           21.66         15.3231 
        0.72409         21.3359         15.0355 
       0.730186          21.037         14.7572 
       0.736317         20.8137         14.4845 
       0.742472         20.4542         14.2177 
       0.748622          20.234         13.9579 
        0.75476         19.8626         13.7053 
       0.760888         19.5892         13.4594 
       0.767043         19.3586         13.2186 
       0.773185         19.0042         12.9842 
       0.779291          18.897         12.7569 
       0.785407          18.653         12.5348 
       0.791564         18.3234         12.3166 
       0.797719         17.9375         12.1038 
       0.803834         17.9002         11.8973 
       0.809972         17.7368          11.695 
       0.816124         17.3258          11.497 
       0.822261         17.1562         11.3042 
       0.828378         16.9701         11.1164 
       0.834502         16.8108         10.9327 
       0.840667         16.5664         10.7521 
       0.846816         16.2754          10.576 
       0.852925          16.125         10.4051 
       0.859047         15.9435         10.2376 
       0.865192         15.7951         10.0733 
       0.871341         15.6601         9.91248 
       0.877463         15.3804         9.75596 
       0.883569         15.1812         9.60323 
       0.889708          14.952         9.45303 
       0.895864          14.843         9.30567 
       0.902008         14.7249          9.1618 
       0.908149         14.5604         9.02108 
       0.914301         14.4405         8.88311 
       0.920448         14.1726         8.74818 
       0.926574         14.0438         8.61654 
       0.932687         13.8978         8.48792 
       0.938823         13.7133         8.36148 
       0.944975         13.5542         8.23734 
       0.951105         13.4379         8.11619 
       0.957225          13.327          7.9977 
       0.963368         13.1886         7.88119 
       0.969511         13.0651         7.76701 
       0.975621         12.9329         7.65572 
       0.981748         12.7715         7.54635 
       0.987916         12.6846         7.43844 
        0.99406         12.5025         7.33306 
        1.00019         12.3222         7.22995 
        1.00632         12.2989         7.12893 
        1.01246         12.1638         7.02971 
        1.01859         11.9772         6.93254 
        1.02471         11.9198         6.83735 
        1.03085         11.8001         6.74363 
        1.03698         11.6228         6.65187 
        1.04314         11.5592         6.56144 
        1.04929           11.41         6.47292 
        1.05541         11.2848         6.38639 
        1.06154         11.2091         6.30124 
        1.06769         11.1541         6.21752 
        1.07382         10.9926          6.1356 
        1.07993         10.9109         6.05536 
        1.08607         10.8099         5.97622 
        1.09222          10.723         5.89844 
        1.09836          10.596         5.82213 
        1.10449         10.5142         5.74728 
        1.11063          10.408         5.67366 
        1.11677          10.357         5.60137 
         1.1229         10.2836         5.53047 
        1.12903         10.1549         5.46075 
        1.13518         10.0344         5.39218 
        1.14131         9.97113         5.32483 
        1.14745          9.8817         5.25868 
        1.15359         9.81692         5.19364 
        1.15973         9.72804         5.12969 
        1.16584         9.58772          5.0671 
        1.17197         9.53613         5.00547 
        1.17811          9.4879         4.94469 
        1.18424         9.39996         4.88509 
        1.19038         9.35788         4.82631 
        1.19652         9.25116         4.76853 
        1.20267         9.15701         4.71169 
        1.20881         9.13359          4.6558 
        1.21495         9.05422         4.60091 
        1.22108         8.94535         4.54692 
         1.2272         8.88831         4.49393 
        1.23334         8.79653         4.44166 
        1.23949         8.72232         4.39011 
        1.24562         8.68573         4.33952 
        1.25174         8.61789         4.28982 
        1.25789         8.55163         4.24074 
        1.26402         8.50959         4.19252 
        1.27014         8.43268         4.14518 
        1.27628         8.32944         4.09843 
        1.28244         8.26126         4.05231 
        1.28858         8.25707         4.00697 
        1.29471         8.16212         3.96243 
        1.30084         8.08255         3.91861 
        1.30697          8.0762         3.87539 
        1.31312         7.95068         3.83276 
        1.31925         7.90141          3.7909 
        1.32537         7.85528         3.74972 
        1.33151         7.81997           3.709 
        1.33765         7.74064         3.66891 
        1.34378          7.6839          3.6295 
        1.34992          7.6318         3.59064 
        1.35606         7.57835         3.55227 
         1.3622         7.53577         3.51453 
        1.36833         7.46969         3.47743 
        1.37445         7.42647         3.44089 
        1.38059         7.39823         3.40476 
        1.38675         7.32988         3.36907 
        1.39288         7.29392         3.33404 
        1.39901         7.21026         3.29952 
        1.40515         7.17934         3.26541 
         1.4113         7.13267          3.2318 
        1.41742         7.08359          3.1988 
        1.42355         7.02006          3.1662 
         1.4297         6.98289         3.13395 
        1.43585         6.95385         3.10217 
        1.44198         6.92083         3.07095 
        1.44809         6.85731         3.04022 
        1.45423         6.80467         3.00981 
        1.46036         6.75825         2.97986 
        1.46649         6.72145         2.95031 
        1.47263         6.66184         2.92114 
        1.47877         6.62366         2.89238 
        1.48491         6.58806         2.86396 
        1.49104         6.54506         2.83598 
        1.49718         6.51071         2.80836 
        1.50333          6.4728         2.78106 
        1.50947         6.42125         2.75418 
         1.5156         6.38691          2.7277 
        1.52172         6.35355         2.70157 
        1.52787         6.31197         2.67573 
          1.534          6.2629         2.65026 
        1.54013         6.23795         2.62515 
        1.54627         6.18165         2.60032 
        1.55241         6.15172         2.57581 
        1.55855         6.12704         2.55165 
        1.56467         6.07909         2.52787 
         1.5708          6.0569         2.50433 
        1.57695         6.00081         2.48105 
        1.58308         5.96066         2.45812 
        1.58922         5.94677         2.43547 
        1.59535         5.91788         2.41311 
         1.6015         5.86624           2.391 
        1.60764         5.82564         2.36919 
        1.61376         5.80584          2.3477 
        1.61989         5.77276         2.32647 
        1.62604         5.73144         2.30545 
        1.63218         5.71836          2.2847 
        1.63831         5.68103         2.26426 
        1.64444         5.65108         2.24406 
        1.65059         5.58863         2.22407 
        1.65673         5.59086         2.20433 
        1.66285         5.53265         2.18489 
        1.66898          5.5093         2.16568 
        1.67512         5.48302         2.14667 
        1.68127         5.44872         2.12786 
         1.6874         5.43127         2.10933 
        1.69353         5.38575         2.09102 
        1.69967         5.36442         2.07289 
        1.70581         5.33709         2.05499 
        1.71193         5.30363         2.03736 
        1.71806         5.28538          2.0199 
        1.72421         5.24745         2.00262 
        1.73035         5.23233         1.98555 
        1.73649         5.20029         1.96869 
        1.74262         5.16485         1.95204 
        1.74876         5.14794         1.93558 
        1.75489         5.12464         1.91933 
        1.76101         5.08212         1.90328 
        1.76715         5.06882         1.88739 
        1.77329         5.04021         1.87167 
        1.77943          4.9979         1.85611 
        1.78557         4.99122         1.84076 
        1.79171         4.95916         1.82558 
        1.79785         4.93225         1.81057 
        1.80399         4.90215         1.79573 
        1.81012         4.88366         1.78107 
        1.81625         4.85812         1.76659 
        1.82239         4.83827         1.75225 
        1.82853          4.8082         1.73807 
        1.83466         4.79047         1.72406 
        1.84078         4.76828         1.71023 
        1.84692         4.75574         1.69652 
        1.85306         4.71449         1.68295 
         1.8592           4.687         1.66954 
        1.86533         4.66953         1.65629 
        1.87147         4.65178         1.64317 
        1.87761         4.62512         1.63019 
        1.88375          4.6018         1.61736 
        1.88988         4.57995         1.60469 
        1.89601         4.56017         1.59214 
        1.90215         4.54097         1.57972 
        1.90829         4.51255         1.56743 
        1.91442         4.49484         1.55528 
        1.92056         4.47354         1.54326 
         1.9267         4.44744         1.53137 
        1.93284           4.431         1.51959 
        1.93897         4.40804         1.50795 
        1.94509         4.38934         1.49647 
        1.95123         4.36614         1.48507 
        1.95737         4.33888         1.47378 
        1.96349         4.32974         1.46265 
        1.96964         4.31221         1.45159 
        1.97578         4.28078         1.44065 
        1.98192          4.2713         1.42984 
        1.98805         4.25314         1.41914 
        1.99419         4.23061         1.40855 
        2.00033         4.21896         1.39806 
        2.00647         4.19306         1.38768 
         2.0126         4.18059         1.37743 
        2.01874         4.15045         1.36726 
        2.02488         4.14264         1.35719 
        2.03101         4.11076         1.34724 
        2.03714         4.09594          1.3374 
        2.04328         4.07744         1.32764 
        2.04941         4.05378         1.31799 
        2.05554         4.04193         1.30845 
        2.06167         4.02912         1.29898 
        2.06781         4.00863         1.28961 
        2.07396         3.99848         1.28032 
        2.08009         3.97735         1.27113 
        2.08622         3.95436         1.26205 
        2.09237         3.94098         1.25304 
        2.09851         3.92775         1.24411 
        2.10464         3.90963         1.23528 
        2.11077         3.88645         1.22655 
        2.11691         3.87245         1.21789 
        2.12305         3.86087         1.20931 
        2.12918         3.85005         1.20083 
        2.13531         3.83107         1.19244 
        2.14145         3.81444          1.1841 
         2.1476         3.79181         1.17584 
        2.15372          3.7771         1.16769 
        2.15985         3.77344         1.15962 
        2.16599         3.74562         1.15159 
        2.17213          3.7316         1.14366 
        2.17827         3.72223          1.1358 
         2.1844         3.70249         1.12802 
        2.19054         3.68864         1.12031 
        2.19666         3.67018         1.11268 
         2.2028         3.65576         1.10512 
        2.20893         3.64427         1.09763 
        2.21508         3.62497         1.09019 
        2.22122         3.61109         1.08283 
        2.22736         3.59825         1.07554 
        2.23349         3.59037         1.06833 
        2.23962         3.57202         1.06118 
        2.24577         3.55615         1.05409 
         2.2519         3.54804         1.04707 
        2.25802         3.52901         1.04013 
        2.26417         3.51823         1.03323 
        2.27031         3.50033         1.02639 
        2.27644         3.48574         1.01963 
        2.28257         3.47064         1.01293 
        2.28872         3.46553         1.00628 
        2.29486         3.44693        0.999685 
        2.30099         3.43099        0.993168 
        2.30712         3.41836        0.986706 
        2.31326         3.40225         0.98029 
         2.3194         3.39407        0.973936 
        2.32553         3.38117        0.967648 
        2.33166         3.37231        0.961419 
         2.3378         3.35595        0.955236 
        2.34394         3.34404        0.949105 
        2.35007         3.32802        0.943037 
        2.35619         3.32081        0.937029 
        2.36233         3.30875        0.931059 
        2.36848         3.28956        0.925129 
        2.37462         3.28615        0.919264 
        2.38075         3.26949        0.913455 
        2.38689         3.26122        0.907691 
        2.39303         3.24619        0.901978 
        2.39916         3.23375         0.89632 
        2.40529         3.22278        0.890711 
        2.41143         3.21056        0.885147 
        2.41757         3.20127        0.879627 
         2.4237         3.19138        0.874165 
        2.42983         3.16516        0.868749 
        2.43598         3.16558        0.863366 
        2.44211         3.14744        0.858037 
        2.44823         3.14176        0.852765 
        2.45437         3.12531        0.847522 
        2.46052         3.12027         0.84232 
        2.46665          3.1089        0.837171 
        2.47279         3.09607        0.832066 
        2.47892         3.08612        0.827001 
        2.48507         3.07517        0.821974 
         2.4912         3.05842        0.816997 
