# k  (h/Mpc)    Pcb(k)  (Mpc/h)^3    Pcb_linear(k)  (Mpc/h)^3
     0.00783031         1115.94         1127.15 
       0.013688         1368.73         1370.68 
       0.019231         1370.53         1370.32 
      0.0249154         1247.68         1254.16 
      0.0312784         1079.46         1079.95 
      0.0375637         924.315         921.755 
      0.0433917         807.905         808.949 
      0.0492413         729.288         728.547 
      0.0555754         664.024         667.196 
      0.0619321         619.812          617.33 
       0.067871         568.483         570.546 
      0.0738098         517.206         519.215 
      0.0800417         459.269         462.104 
      0.0862327         406.716          407.45 
      0.0921407         362.666         362.308 
      0.0982031         325.434          325.95 
       0.104506         300.719         298.769 
       0.110769         281.215         279.865 
       0.116806         265.366         265.676 
       0.122832         252.878         252.133 
       0.129052         236.002         236.605 
       0.135211         218.767          219.22 
       0.141259         202.069         201.232 
       0.147318         185.714         183.972 
       0.153489         169.836         168.689 
       0.159709         157.855          156.42 
       0.165845         149.836         147.286 
       0.171974         141.571         140.327 
       0.178125         135.861         134.432 
       0.184229         130.398         128.681 
        0.19034         122.867         122.425 
       0.196428          117.07         115.601 
       0.202534         110.944         108.476 
       0.208729         103.503          101.48 
       0.214876         96.8338         95.2412 
       0.220989         92.4971          89.987 
       0.227147         87.2918         85.6497 
        0.23329         83.7179         82.0643 
       0.239377         80.8621         78.9314 
       0.245482         77.1232         75.9133 
       0.251667         74.7676         72.7811 
       0.257832         71.4641         69.5276 
       0.263955         68.2468         66.2408 
       0.270079         65.1361         63.0333 
        0.27624         62.6858         60.0309 
       0.282372         60.0076         57.3542 
        0.28843         57.3788         55.0293 
       0.294538          55.226         52.9613 
       0.300721         53.7363         51.0596 
        0.30691         51.4813         49.2573 
       0.313033         49.7794         47.5027 
       0.319153         47.4659         45.7516 
       0.325316         46.4578         43.9961 
        0.33145         44.5889         42.2931 
       0.337538         43.1156         40.6828 
       0.343633         41.4659         39.1815 
       0.349808         40.2012         37.7831 
       0.355968         38.9427         36.5014 
       0.362074         37.6763         35.3214 
       0.368217         36.5532         34.1955 
       0.374374          35.337         33.1072 
       0.380519         34.4049         32.0463 
       0.386598         33.4226          31.019 
       0.392688          32.572         30.0191 
        0.39888         31.5115         29.0403 
       0.405048         30.6608          28.113 
       0.411186         29.8436         27.2427 
       0.417313         28.8447          26.423 
       0.423458          28.096         25.6458 
       0.429607         27.2867         24.9054 
       0.435692         26.4866         24.2009 
       0.441815         25.9051         23.5147 
       0.447964         25.4026         22.8468 
       0.454126         24.4625         22.1981 
       0.460267           23.94         21.5733 
       0.466387         23.1917         20.9748 
        0.47254         22.7644         20.3989 
       0.478662         22.3019         19.8507 
       0.484765         21.6296         19.3274 
       0.490885         21.1124         18.8241 
       0.497035         20.8125         18.3374 
       0.503198         20.2419         17.8667 
       0.509342         19.7394          17.412 
       0.515458         19.2684         16.9737 
       0.521598         18.8907         16.5481 
       0.527764         18.4305         16.1354 
       0.533884         18.1071           15.74 
           0.54         17.6876         15.3588 
       0.546137         17.3516         14.9898 
       0.552299         17.0243         14.6325 
       0.558452         16.5052         14.2881 
       0.564573         16.2684         13.9567 
       0.570708         15.9466         13.6349 
       0.576825         15.5331         13.3238 
       0.582926         15.2548         13.0229 
       0.589034          14.832         12.7309 
       0.595184         14.6086          12.446 
       0.601379         14.2935         12.1682 
       0.607522         14.0734         11.9014 
       0.613639         13.8838          11.644 
       0.619772         13.5066         11.3937 
       0.625918         13.3854         11.1504 
       0.632068         13.1616         10.9141 
       0.638161         12.8425         10.6868 
         0.6443         12.5788         10.4644 
       0.650464         12.3265         10.2475 
       0.656582         12.2194         10.0384 
       0.662703         11.9869         9.83514 
       0.668861         11.7671         9.63644 
       0.675024         11.5299         9.44316 
       0.681124          11.326         9.25719 
       0.687237         11.1515         9.07593 
       0.693381         10.9967         8.89873 
       0.699536         10.6993         8.72599 
       0.705665          10.586         8.55863 
       0.711789          10.402         8.39584 
       0.717957         10.2265         8.23622 
        0.72409         10.0538         8.08167 
       0.730186         9.91283         7.93206 
       0.736317          9.8041         7.78547 
       0.742472         9.64268         7.64207 
       0.748622         9.48328         7.50246 
        0.75476         9.28706         7.36667 
       0.760888         9.16902         7.23448 
       0.767043         9.05632         7.10504 
       0.773185         8.87031         6.97907 
       0.779291         8.79533          6.8569 
       0.785407         8.65322         6.73751 
       0.791564         8.51685         6.62023 
       0.797719         8.36601         6.50583 
       0.803834         8.30362         6.39488 
       0.809972         8.20851         6.28614 
       0.816124         8.03476         6.17971 
       0.822261         7.91038         6.07605 
       0.828378         7.81506         5.97511 
       0.834502         7.74628         5.87639 
       0.840667         7.59774         5.77929 
       0.846816         7.47083         5.68467 
       0.852925         7.40519         5.59279 
       0.859047         7.30591         5.50276 
       0.865192         7.23399         5.41444 
       0.871341         7.15126         5.32801 
       0.877463         7.03775         5.24387 
       0.883569           6.921         5.16178 
       0.889708         6.81073         5.08105 
       0.895864         6.74751         5.00184 
       0.902008         6.66714         4.92451 
       0.908149         6.59466         4.84887 
       0.914301         6.49205         4.77471 
       0.920448         6.40052         4.70219 
       0.926574         6.31781         4.63143 
       0.932687         6.25623          4.5623 
       0.938823         6.17474         4.49434 
       0.944975         6.09274         4.42761 
       0.951105          6.0318         4.36249 
       0.957225         5.99934          4.2988 
       0.963368         5.91133         4.23618 
       0.969511         5.83623         4.17481 
       0.975621         5.75862         4.11499 
       0.981748         5.69971          4.0562 
       0.987916         5.63952          3.9982 
        0.99406         5.54598         3.94156 
        1.00019         5.47466         3.88613 
        1.00632         5.44404         3.83184 
        1.01246         5.37979          3.7785 
        1.01859         5.30828         3.72628 
        1.02471         5.25412         3.67511 
        1.03085         5.19585         3.62473 
        1.03698         5.12637         3.57541 
        1.04314         5.08558         3.52681 
        1.04929         5.02075         3.47922 
        1.05541         4.96198         3.43271 
        1.06154         4.91845         3.38695 
        1.06769          4.8884         3.34195 
        1.07382         4.80866         3.29792 
        1.07993         4.75391         3.25478 
        1.08607         4.72694         3.21225 
        1.09222         4.67154         3.17044 
        1.09836         4.62635         3.12942 
        1.10449         4.57699         3.08919 
        1.11063         4.52657         3.04962 
        1.11677         4.49001         3.01076 
         1.1229         4.44506         2.97266 
        1.12903         4.39132         2.93518 
        1.13518         4.34958         2.89832 
        1.14131         4.29355         2.86212 
        1.14745         4.24062         2.82656 
        1.15359         4.21845         2.79161 
        1.15973         4.16735         2.75723 
        1.16584         4.12952         2.72359 
        1.17197         4.09109         2.69047 
        1.17811         4.06223         2.65779 
        1.18424         4.02606         2.62576 
        1.19038         3.99318         2.59417 
        1.19652         3.95066         2.56311 
        1.20267         3.91025         2.53256 
        1.20881         3.87848         2.50252 
        1.21495         3.84459         2.47301 
        1.22108         3.80537         2.44399 
         1.2272         3.78216         2.41551 
        1.23334         3.73208         2.38742 
        1.23949         3.69602         2.35971 
        1.24562         3.67668         2.33252 
        1.25174         3.63203          2.3058 
        1.25789         3.60682         2.27942 
        1.26402         3.57128          2.2535 
        1.27014         3.53815         2.22805 
        1.27628         3.51587         2.20293 
        1.28244         3.47093         2.17814 
        1.28858         3.45521         2.15377 
        1.29471          3.4153         2.12983 
        1.30084         3.38264         2.10627 
        1.30697         3.37669         2.08304 
        1.31312         3.31517         2.06012 
        1.31925         3.30093         2.03763 
        1.32537         3.27116         2.01549 
        1.33151         3.25452         1.99361 
        1.33765         3.21147         1.97206 
        1.34378         3.18988         1.95087 
        1.34992         3.17551         1.92999 
        1.35606         3.12977         1.90936 
         1.3622          3.1187         1.88908 
        1.36833          3.0907         1.86914 
        1.37445         3.06374          1.8495 
        1.38059         3.04928         1.83008 
        1.38675         3.02903         1.81089 
        1.39288         2.99673         1.79206 
        1.39901         2.96578         1.77351 
        1.40515         2.94556         1.75517 
         1.4113         2.92579         1.73711 
        1.41742          2.9048         1.71937 
        1.42355         2.88373         1.70185 
         1.4297         2.85469         1.68451 
        1.43585         2.84219         1.66743 
        1.44198         2.82414         1.65065 
        1.44809         2.79195         1.63414 
        1.45423         2.77043         1.61779 
        1.46036          2.7476         1.60169 
        1.46649         2.72799         1.58581 
        1.47263         2.70608         1.57013 
        1.47877         2.68201         1.55467 
        1.48491         2.66447         1.53939 
        1.49104         2.64986         1.52435 
        1.49718         2.63062         1.50951 
        1.50333         2.61129         1.49483 
        1.50947         2.59279         1.48039 
         1.5156         2.57256         1.46615 
        1.52172         2.55517         1.45211 
        1.52787         2.53692         1.43822 
          1.534         2.51725         1.42453 
        1.54013         2.50122         1.41103 
        1.54627         2.47807         1.39769 
        1.55241         2.45975         1.38451 
        1.55855         2.44865         1.37152 
        1.56467         2.43226         1.35874 
         1.5708         2.40921         1.34609 
        1.57695         2.39411         1.33358 
        1.58308         2.37633         1.32125 
        1.58922         2.36551         1.30908 
        1.59535           2.348         1.29706 
         1.6015         2.33133         1.28518 
        1.60764         2.31747         1.27345 
        1.61376         2.30297          1.2619 
        1.61989         2.28439         1.25049 
        1.62604         2.26736         1.23919 
        1.63218         2.26092         1.22804 
        1.63831         2.23791         1.21705 
        1.64444         2.22303          1.2062 
        1.65059         2.21136         1.19545 
        1.65673         2.19721         1.18484 
        1.66285         2.17949         1.17439 
        1.66898         2.16898         1.16407 
        1.67512         2.14954         1.15384 
        1.68127         2.13716         1.14374 
         1.6874         2.13024         1.13377 
        1.69353          2.1048         1.12393 
        1.69967         2.09442         1.11419 
        1.70581         2.08892         1.10457 
        1.71193         2.07077         1.09509 
        1.71806         2.06214         1.08571 
        1.72421         2.04773         1.07642 
        1.73035         2.03418         1.06725 
        1.73649         2.02058         1.05818 
        1.74262         2.00805         1.04923 
        1.74876         1.99997         1.04038 
        1.75489         1.98144         1.03165 
        1.76101         1.96925         1.02302 
        1.76715            1.96         1.01448 
        1.77329         1.94971         1.00603 
        1.77943         1.93193         0.99767 
        1.78557         1.92297        0.989418 
        1.79171          1.9161        0.981257 
        1.79785         1.89912        0.973188 
        1.80399         1.88974        0.965211 
        1.81012         1.88178        0.957335 
        1.81625         1.86735         0.94955 
        1.82239         1.85492        0.941841 
        1.82853         1.83991        0.934221 
        1.83466         1.83589        0.926693 
        1.84078         1.82385        0.919255 
        1.84692         1.81559        0.911888 
        1.85306         1.80089        0.904593 
         1.8592         1.79117        0.897388 
        1.86533         1.78029        0.890267 
        1.87147         1.77377        0.883214 
        1.87761         1.76176        0.876235 
        1.88375         1.74858         0.86934 
        1.88988         1.74259        0.862526 
        1.89601         1.73074        0.855782 
        1.90215         1.71759        0.849105 
        1.90829         1.70757        0.842502 
        1.91442         1.70231         0.83597 
        1.92056         1.69124        0.829512 
         1.9267         1.68226        0.823116 
        1.93284          1.6765        0.816784 
        1.93897          1.6652        0.810531 
        1.94509         1.65397        0.804357 
        1.95123         1.64306        0.798232 
        1.95737         1.63526        0.792167 
        1.96349         1.62743         0.78618 
        1.96964         1.62105        0.780238 
        1.97578         1.60948        0.774355 
        1.98192         1.60204        0.768545 
        1.98805         1.59168        0.762794 
        1.99419         1.58636        0.757101 
        2.00033         1.58112        0.751465 
        2.00647         1.56687        0.745887 
         2.0126         1.56166        0.740375 
        2.01874         1.54992        0.734911 
        2.02488         1.54494        0.729498 
        2.03101         1.53216        0.724149 
        2.03714          1.5242        0.718858 
        2.04328         1.51981        0.713615 
        2.04941         1.50813        0.708429 
        2.05554         1.50324        0.703298 
        2.06167         1.49394         0.69821 
        2.06781         1.48929        0.693173 
        2.07396         1.48008        0.688178 
        2.08009         1.47238        0.683241 
        2.08622         1.46303        0.678358 
        2.09237         1.45869        0.673513 
        2.09851         1.45005        0.668715 
        2.10464         1.44622        0.663971 
        2.11077         1.43576        0.659279 
        2.11691         1.42765        0.654622 
        2.12305         1.42289         0.65001 
        2.12918         1.41517        0.645454 
        2.13531         1.40825        0.640941 
        2.14145         1.39983        0.636461 
         2.1476         1.39171        0.632018 
        2.15372         1.38583         0.62764 
        2.15985         1.37807          0.6233 
        2.16599         1.37297        0.618988 
        2.17213         1.36392        0.614722 
        2.17827         1.35982        0.610497 
         2.1844         1.35406        0.606315 
        2.19054         1.34879        0.602172 
        2.19666         1.34056        0.598073 
         2.2028          1.3337        0.594008 
        2.20893         1.32716         0.58998 
        2.21508         1.32309        0.585985 
        2.22122         1.31185        0.582025 
        2.22736         1.30648         0.57811 
        2.23349         1.30489        0.574232 
        2.23962         1.29495        0.570388 
        2.24577         1.29022        0.566576 
         2.2519         1.28228        0.562804 
        2.25802         1.27934        0.559073 
        2.26417         1.27165        0.555365 
        2.27031         1.26693        0.551687 
        2.27644         1.26053        0.548054 
        2.28257         1.25466        0.544453 
        2.28872         1.24849        0.540878 
        2.29486         1.24317        0.537336 
        2.30099         1.23634        0.533833 
        2.30712         1.23048        0.530359 
        2.31326         1.22823        0.526911 
         2.3194         1.22139        0.523495 
        2.32553         1.21688        0.520116 
        2.33166         1.20843        0.516767 
         2.3378         1.20296        0.513444 
        2.34394         1.19724        0.510149 
        2.35007         1.19215        0.506887 
        2.35619         1.19008        0.503658 
        2.36233         1.18136        0.500449 
        2.36848          1.1772        0.497262 
        2.37462         1.17235        0.494109 
        2.38075          1.1673        0.490986 
        2.38689         1.16255        0.487888 
        2.39303         1.15713        0.484818 
        2.39916         1.15104        0.481776 
        2.40529         1.14753        0.478762 
        2.41143         1.14135        0.475771 
        2.41757         1.13681        0.472804 
         2.4237         1.13413        0.469868 
        2.42983          1.1266        0.466957 
        2.43598          1.1241        0.464063 
        2.44211         1.11859        0.461199 
        2.44823         1.11335        0.458365 
        2.45437          1.1091        0.455548 
        2.46052         1.10547        0.452751 
        2.46665         1.10005        0.449983 
        2.47279           1.095         0.44724 
        2.47892         1.08956        0.444517 
        2.48507          1.0864        0.441815 
         2.4912         1.08083         0.43914 
