# k  (h/Mpc)    Pcb(k)  (Mpc/h)^3    Pcb_linear(k)  (Mpc/h)^3
     0.00783031         5007.68         5066.91 
       0.013688         6178.87         6159.38 
       0.019231         6164.39         6155.49 
      0.0249154         5571.99         5632.01 
      0.0312784         4831.76         4848.67 
      0.0375637         4148.91         4137.94 
      0.0433917         3606.51          3631.3 
      0.0492413          3265.3         3270.21 
      0.0555754         2952.71         2994.69 
      0.0619321         2784.09         2770.77 
       0.067871         2531.77         2560.73 
      0.0738098         2303.87          2330.3 
      0.0800417         2039.75         2073.95 
      0.0862327         1814.67         1828.64 
      0.0921407          1628.1         1626.03 
      0.0982031         1457.66         1462.84 
       0.104506         1360.41         1340.84 
       0.110769         1270.31            1256 
       0.116806         1195.62         1192.31 
       0.122832         1141.21         1131.53 
       0.129052         1058.39         1061.83 
       0.135211         984.732         983.814 
       0.141259         917.638         903.082 
       0.147318         847.967          825.62 
       0.153489         774.354         757.033 
       0.159709         725.632         701.973 
       0.165845         693.313         660.981 
       0.171974         654.331         629.749 
       0.178125         627.484         603.294 
       0.184229         602.926         577.481 
        0.19034         562.907         549.408 
       0.196428         543.926         518.781 
       0.202534         519.739         486.806 
       0.208729          487.09          455.41 
       0.214876         457.104         427.413 
       0.220989         440.125         403.833 
       0.227147         415.924         384.369 
        0.23329         399.687         368.278 
       0.239377         389.282         354.218 
       0.245482         365.666         340.674 
       0.251667         359.172         326.618 
       0.257832         345.424         312.017 
       0.263955         331.039         297.266 
       0.270079         317.308         282.872 
        0.27624          309.83         269.398 
       0.282372         297.164         257.386 
        0.28843         286.078         246.953 
       0.294538         274.043         237.672 
       0.300721         270.223         229.138 
        0.30691         257.877          221.05 
       0.313033         251.138         213.176 
       0.319153         240.402         205.317 
       0.325316         234.762         197.439 
        0.33145         226.187         189.797 
       0.337538         222.022          182.57 
       0.343633          214.23         175.833 
       0.349808         207.435         169.557 
       0.355968         203.342         163.805 
       0.362074         197.552          158.51 
       0.368217         192.047         153.457 
       0.374374         186.048         148.573 
       0.380519         182.239         143.813 
       0.386598         177.331         139.202 
       0.392688         174.325         134.715 
        0.39888         169.596         130.323 
       0.405048         165.485         126.161 
       0.411186         161.743         122.255 
       0.417313         157.799         118.577 
       0.423458         154.339         115.089 
       0.429607         150.543         111.766 
       0.435692         145.704         108.605 
       0.441815         144.482         105.525 
       0.447964         141.957         102.528 
       0.454126         135.691          99.617 
       0.460267         134.108          96.813 
       0.466387         131.805         94.1274 
        0.47254         129.193         91.5427 
       0.478662         127.658         89.0828 
       0.484765         123.979         86.7342 
       0.490885         121.806         84.4756 
       0.497035          120.23         82.2917 
       0.503198         116.861          80.179 
       0.509342         114.589         78.1388 
       0.515458         112.869          76.172 
       0.521598         111.276          74.262 
       0.527764         109.476         72.4096 
       0.533884         107.665         70.6352 
           0.54          105.61         68.9246 
       0.546137         104.564         67.2687 
       0.552299         102.914         65.6652 
       0.558452         100.483         64.1196 
       0.564573         98.6685         62.6325 
       0.570708         97.3798         61.1885 
       0.576825         95.8806         59.7924 
       0.582926         93.9899         58.4421 
       0.589034         92.2388         57.1314 
       0.595184         91.1396          55.853 
       0.601379         90.0096         54.6063 
       0.607522         87.8125         53.4091 
       0.613639         87.5867         52.2539 
       0.619772         85.5486         51.1309 
       0.625918         84.7354         50.0391 
       0.632068         83.6934         48.9787 
       0.638161         82.5684         47.9585 
         0.6443         81.3819         46.9602 
       0.650464         80.3055          45.987 
       0.656582         79.3275         45.0486 
       0.662703         77.7805         44.1365 
       0.668861         76.9208         43.2448 
       0.675024         75.9537         42.3774 
       0.681124          74.905         41.5429 
       0.687237         73.5915         40.7294 
       0.693381         72.8927         39.9342 
       0.699536         71.7794          39.159 
       0.705665         72.0877         38.4079 
       0.711789         70.0989         37.6774 
       0.717957         69.5716         36.9611 
        0.72409         68.6042         36.2675 
       0.730186         67.4728         35.5962 
       0.736317         67.2715         34.9383 
       0.742472         66.3154         34.2948 
       0.748622         65.6956         33.6682 
        0.75476         64.9245         33.0589 
       0.760888         63.9801         32.4656 
       0.767043         63.3287         31.8848 
       0.773185         62.5405         31.3195 
       0.779291         62.1614         30.7712 
       0.785407         61.5592         30.2354 
       0.791564          60.685         29.7091 
       0.797719         59.7313         29.1957 
       0.803834         59.5477         28.6978 
       0.809972         58.5351         28.2098 
       0.816124         57.9179         27.7322 
       0.822261         57.5035         27.2671 
       0.828378         57.0607         26.8141 
       0.834502         56.3891         26.3711 
       0.840667         55.8834         25.9353 
       0.846816         55.1227         25.5107 
       0.852925         54.6598         25.0983 
       0.859047         53.9313         24.6943 
       0.865192         53.6152          24.298 
       0.871341         53.3458         23.9101 
       0.877463         52.3081         23.5325 
       0.883569         51.9701         23.1642 
       0.889708         51.6695         22.8018 
       0.895864         51.1669         22.4464 
       0.902008         50.7057         22.0994 
       0.908149         50.2827         21.7599 
       0.914301          49.935         21.4271 
       0.920448         49.3369         21.1017 
       0.926574         48.9218         20.7841 
       0.932687         48.5373         20.4739 
       0.938823         47.8086         20.1689 
       0.944975         47.6822         19.8695 
       0.951105         47.1991         19.5772 
       0.957225         46.6104         19.2914 
       0.963368         46.5623         19.0104 
       0.969511         46.1461          18.735 
       0.975621         45.7597         18.4665 
       0.981748          45.207         18.2027 
       0.987916         44.9537         17.9424 
        0.99406         44.6567         17.6882 
        1.00019         44.0948         17.4395 
        1.00632         43.8941         17.1958 
        1.01246         43.5596         16.9565 
        1.01859         42.9645         16.7221 
        1.02471         43.0157         16.4925 
        1.03085         42.5634         16.2664 
        1.03698         42.0668         16.0451 
        1.04314         41.7029          15.827 
        1.04929         41.4921         15.6135 
        1.05541         41.0361         15.4047 
        1.06154         40.9673         15.1993 
        1.06769         40.5796         14.9974 
        1.07382         40.3039         14.7998 
        1.07993         40.1418         14.6062 
        1.08607         39.6419         14.4154 
        1.09222         39.5137         14.2277 
        1.09836         39.1575         14.0437 
        1.10449          38.873         13.8631 
        1.11063          38.401         13.6856 
        1.11677         38.2368         13.5112 
         1.1229         38.0963         13.3402 
        1.12903          37.555          13.172 
        1.13518         37.5196         13.0066 
        1.14131         37.3752         12.8441 
        1.14745         36.8989         12.6846 
        1.15359         36.8452         12.5277 
        1.15973         36.4001         12.3734 
        1.16584         36.1286         12.2225 
        1.17197         36.0883         12.0738 
        1.17811         35.7133         11.9272 
        1.18424         35.3891         11.7834 
        1.19038         35.3353         11.6416 
        1.19652          35.139         11.5023 
        1.20267         34.8754         11.3652 
        1.20881         34.5942         11.2304 
        1.21495         34.3492          11.098 
        1.22108         34.1446         10.9677 
         1.2272         33.7742         10.8399 
        1.23334         33.6825         10.7138 
        1.23949         33.5382         10.5895 
        1.24562         33.3057         10.4675 
        1.25174         33.1517         10.3476 
        1.25789         32.8967         10.2292 
        1.26402         32.7042         10.1129 
        1.27014         32.3791         9.99867 
        1.27628         32.2488          9.8859 
        1.28244         32.0554         9.77466 
        1.28858         31.9372          9.6653 
        1.29471         31.7592         9.55786 
        1.30084         31.5593         9.45215 
        1.30697         31.3035          9.3479 
        1.31312         31.0312         9.24507 
        1.31925         30.9544         9.14411 
        1.32537         30.8072         9.04477 
        1.33151         30.5693         8.94656 
        1.33765         30.5164         8.84986 
        1.34378         30.3225         8.75479 
        1.34992         29.9432         8.66106 
        1.35606         29.8368          8.5685 
         1.3622         29.6703         8.47747 
        1.36833         29.5056         8.38798 
        1.37445         29.5006         8.29984 
        1.38059         29.2788          8.2127 
        1.38675          28.987         8.12661 
        1.39288         28.9327          8.0421 
        1.39901         28.6771         7.95883 
        1.40515         28.5711         7.87657 
         1.4113         28.4463          7.7955 
        1.41742         28.1515         7.71589 
        1.42355         28.1137         7.63724 
         1.4297         27.9362         7.55947 
        1.43585         27.8876          7.4828 
        1.44198         27.6088          7.4075 
        1.44809         27.4922         7.33339 
        1.45423          27.391         7.26001 
        1.46036          27.295         7.18778 
        1.46649         27.0809          7.1165 
        1.47263         26.9289         7.04614 
        1.47877         26.8349         6.97676 
        1.48491          26.681         6.90821 
        1.49104         26.5974         6.84073 
        1.49718         26.3427          6.7741 
        1.50333         26.2984         6.70825 
        1.50947         26.1799         6.64342 
         1.5156         25.9788         6.57955 
        1.52172         25.8006         6.51651 
        1.52787         25.8139         6.45418 
          1.534         25.5806         6.39275 
        1.54013         25.3997         6.33218 
        1.54627         25.3621         6.27228 
        1.55241         25.1868         6.21316 
        1.55855         25.0471         6.15489 
        1.56467         24.9345         6.09752 
         1.5708         24.8705         6.04073 
        1.57695          24.609         5.98459 
        1.58308         24.6691         5.92928 
        1.58922         24.4754         5.87464 
        1.59535         24.3187         5.82071 
         1.6015         24.2145         5.76739 
        1.60764         24.1611         5.71476 
        1.61376         23.9793         5.66294 
        1.61989         23.8004         5.61172 
        1.62604         23.7867         5.56102 
        1.63218         23.6147         5.51098 
        1.63831         23.5644         5.46167 
        1.64444         23.4082         5.41295 
        1.65059         23.2732         5.36471 
        1.65673         23.1825         5.31711 
        1.66285         23.0744         5.27022 
        1.66898         22.9812         5.22389 
        1.67512         22.9063         5.17802 
        1.68127         22.7306         5.13266 
         1.6874         22.6399         5.08795 
        1.69353          22.574          5.0438 
        1.69967         22.4047         5.00007 
        1.70581         22.3212         4.95687 
        1.71193         22.2175         4.91436 
        1.71806         22.1165         4.87225 
        1.72421         22.0051         4.83055 
        1.73035         21.9194          4.7894 
        1.73649         21.8215         4.74873 
        1.74262         21.7427         4.70856 
        1.74876         21.6515         4.66884 
        1.75489         21.5241         4.62966 
        1.76101         21.4434         4.59094 
        1.76715         21.3541         4.55262 
        1.77329         21.2807         4.51468 
        1.77943         21.1431         4.47717 
        1.78557         21.0742         4.44013 
        1.79171         20.9996         4.40351 
        1.79785         20.8526          4.3673 
        1.80399         20.7607          4.3315 
        1.81012         20.7425         4.29616 
        1.81625           20.62         4.26122 
        1.82239         20.5899         4.22663 
        1.82853         20.3967         4.19243 
        1.83466         20.2941         4.15865 
        1.84078         20.1749         4.12527 
        1.84692         20.1772         4.09221 
        1.85306         20.0516         4.05947 
         1.8592         19.9686         4.02714 
        1.86533         19.8843         3.99518 
        1.87147         19.7918         3.96353 
        1.87761         19.7702         3.93221 
        1.88375         19.6409         3.90127 
        1.88988         19.5862         3.87069 
        1.89601          19.447         3.84043 
        1.90215         19.3854         3.81046 
        1.90829         19.3398         3.78083 
        1.91442         19.2394         3.75152 
        1.92056         19.1619         3.72254 
         1.9267         19.0783         3.69384 
        1.93284         18.9722         3.66542 
        1.93897         18.9212         3.63736 
        1.94509         18.8402         3.60965 
        1.95123         18.7265         3.58217 
        1.95737         18.6768         3.55495 
        1.96349         18.5932         3.52808 
        1.96964         18.5047         3.50141 
        1.97578         18.4589         3.47501 
        1.98192         18.3286         3.44894 
        1.98805         18.2985         3.42313 
        1.99419         18.2067         3.39759 
        2.00033         18.1062         3.37229 
        2.00647         18.0481         3.34726 
         2.0126         17.9467         3.32253 
        2.01874         17.8846           3.298 
        2.02488         17.8553         3.27371 
        2.03101          17.788         3.24971 
        2.03714         17.7011         3.22597 
        2.04328         17.5983         3.20244 
        2.04941         17.5227         3.17916 
        2.05554          17.513         3.15613 
        2.06167         17.4291         3.13331 
        2.06781         17.3579          3.1107 
        2.07396          17.288         3.08828 
        2.08009         17.2234         3.06613 
        2.08622         17.1244         3.04421 
        2.09237         17.0681         3.02247 
        2.09851         16.9968         3.00094 
        2.10464         16.9369         2.97965 
        2.11077         16.8327          2.9586 
        2.11691         16.8171          2.9377 
        2.12305         16.7204           2.917 
        2.12918         16.6552         2.89655 
        2.13531         16.6053          2.8763 
        2.14145         16.5157          2.8562 
         2.1476         16.4662         2.83626 
        2.15372         16.4101         2.81661 
        2.15985          16.307         2.79713 
        2.16599         16.2777         2.77778 
        2.17213         16.2175         2.75864 
        2.17827         16.1562         2.73968 
         2.1844         16.0801         2.72091 
        2.19054         16.0107         2.70232 
        2.19666         15.9823         2.68393 
         2.2028         15.9309         2.66569 
        2.20893         15.8235         2.64761 
        2.21508         15.7708         2.62968 
        2.22122         15.6909         2.61191 
        2.22736          15.649         2.59434 
        2.23349         15.5764         2.57694 
        2.23962         15.5126         2.55969 
        2.24577         15.4405         2.54258 
         2.2519         15.4308         2.52565 
        2.25802         15.3754         2.50891 
        2.26417         15.3192         2.49227 
        2.27031         15.2363         2.47576 
        2.27644         15.1853         2.45946 
        2.28257         15.1169          2.4433 
        2.28872         15.0555         2.42726 
        2.29486         15.0195         2.41136 
        2.30099         14.9549         2.39564 
        2.30712         14.9259         2.38005 
        2.31326         14.8556         2.36458 
         2.3194         14.7935         2.34925 
        2.32553         14.7335         2.33408 
        2.33166         14.6418         2.31906 
         2.3378          14.608         2.30414 
        2.34394          14.559         2.28935 
        2.35007         14.4896         2.27472 
        2.35619          14.423         2.26023 
        2.36233         14.3905         2.24583 
        2.36848         14.3547         2.23152 
        2.37462         14.3326         2.21737 
        2.38075          14.241         2.20336 
        2.38689         14.2085         2.18946 
        2.39303         14.1384         2.17568 
        2.39916         14.0915         2.16203 
        2.40529         14.0348          2.1485 
        2.41143          13.988         2.13508 
        2.41757          13.945         2.12177 
         2.4237         13.8803         2.10859 
        2.42983         13.8343         2.09553 
        2.43598         13.7864         2.08254 
        2.44211         13.7207         2.06969 
        2.44823         13.6671         2.05697 
        2.45437         13.6509         2.04433 
        2.46052         13.5911         2.03178 
        2.46665          13.528         2.01936 
        2.47279         13.4697         2.00704 
        2.47892          13.447         1.99483 
        2.48507         13.4088          1.9827 
         2.4912         13.3507          1.9707 
