# k  (h/Mpc)    Pcb(k)  (Mpc/h)^3    Pcb_linear(k)  (Mpc/h)^3
     0.00783031         135.259         136.494 
       0.013688         165.325         166.023 
       0.019231         165.843         166.005 
      0.0249154         151.551         151.955 
      0.0312784         130.916         130.864 
      0.0375637         111.931         111.705 
      0.0433917         98.1209         98.0399 
      0.0492413         88.4199         88.2988 
      0.0555754         80.7947         80.8653 
      0.0619321         74.9484          74.823 
       0.067871          69.072         69.1535 
      0.0738098         62.8523         62.9327 
      0.0800417          55.912         56.0111 
      0.0862327         49.3876          49.387 
      0.0921407         43.9501         43.9157 
      0.0982031         39.5108         39.5089 
       0.104506         36.3059         36.2144 
       0.110769         33.9771         33.9231 
       0.116806         32.1669         32.2032 
       0.122832          30.572         30.5618 
       0.129052         28.6331         28.6795 
       0.135211         26.5252         26.5724 
       0.141259         24.3998          24.392 
       0.147318         22.3542         22.2999 
       0.153489         20.4755         20.4474 
       0.159709         18.9882         18.9604 
       0.165845         17.9328         17.8532 
       0.171974         17.0176         17.0096 
       0.178125         16.3107         16.2951 
       0.184229         15.6303         15.5979 
        0.19034         14.8219         14.8397 
       0.196428         14.0275         14.0125 
       0.202534         13.2116         13.1488 
       0.208729         12.3354         12.3009 
       0.214876         11.5579         11.5447 
       0.220989         10.9655         10.9078 
       0.227147         10.3955          10.382 
        0.23329         9.95887         9.94744 
       0.239377         9.58376         9.56768 
       0.245482         9.20252         9.20184 
       0.251667         8.85213         8.82218 
       0.257832          8.4456          8.4278 
       0.263955         8.05528         8.02939 
       0.270079         7.67131          7.6406 
        0.27624         7.32734         7.27666 
       0.282372         7.00177         6.95222 
        0.28843         6.70215          6.6704 
       0.294538         6.45184         6.41973 
       0.300721          6.2381         6.18921 
        0.30691         5.99848         5.97075 
       0.313033         5.78899         5.75806 
       0.319153         5.55062          5.5458 
       0.325316         5.37688         5.33301 
        0.33145         5.16552         5.12658 
       0.337538         4.96816         4.93139 
       0.343633         4.77816          4.7494 
       0.349808         4.61725          4.5799 
       0.355968         4.46286         4.42454 
       0.362074         4.31518          4.2815 
       0.368217         4.17917         4.14502 
       0.374374         4.03635         4.01311 
       0.380519          3.9179         3.88452 
       0.386598         3.79798         3.75999 
       0.392688         3.68242         3.63879 
        0.39888         3.55878         3.52014 
       0.405048         3.44758         3.40774 
       0.411186         3.34406         3.30224 
       0.417313          3.2386         3.20288 
       0.423458         3.14984         3.10867 
       0.429607         3.05276         3.01893 
       0.435692         2.96717         2.93353 
       0.441815         2.88496         2.85035 
       0.447964         2.81249         2.76939 
       0.454126         2.72416         2.69076 
       0.460267          2.6483         2.61502 
       0.466387         2.57228         2.54248 
        0.47254         2.50507         2.47266 
       0.478662         2.44142         2.40622 
       0.484765         2.37328         2.34278 
       0.490885         2.31442         2.28177 
       0.497035         2.26421         2.22278 
       0.503198         2.20161         2.16572 
       0.509342         2.14937         2.11061 
       0.515458         2.09201         2.05749 
       0.521598         2.04105          2.0059 
       0.527764         1.98619         1.95586 
       0.533884         1.94559         1.90793 
           0.54         1.89703         1.86173 
       0.546137         1.85408           1.817 
       0.552299         1.80974         1.77369 
       0.558452         1.76379         1.73194 
       0.564573         1.72673         1.69177 
       0.570708         1.68744         1.65277 
       0.576825         1.64693         1.61506 
       0.582926         1.61449         1.57859 
       0.589034         1.57117         1.54318 
       0.595184         1.53834         1.50865 
       0.601379         1.50479         1.47497 
       0.607522         1.47554         1.44264 
       0.613639         1.44795         1.41144 
       0.619772         1.41144          1.3811 
       0.625918         1.38414         1.35161 
       0.632068          1.3576         1.32297 
       0.638161          1.3272         1.29541 
         0.6443         1.29979         1.26845 
       0.650464         1.27058         1.24216 
       0.656582         1.24774         1.21681 
       0.662703          1.2235         1.19217 
       0.668861         1.20247         1.16809 
       0.675024         1.17582         1.14466 
       0.681124         1.15043         1.12212 
       0.687237         1.13179         1.10015 
       0.693381         1.11049         1.07867 
       0.699536         1.08408         1.05773 
       0.705665         1.06504         1.03744 
       0.711789         1.04741         1.01771 
       0.717957         1.02589         0.99836 
        0.72409         1.00754        0.979627 
       0.730186        0.988571        0.961492 
       0.736317        0.974519        0.943722 
       0.742472        0.955812         0.92634 
       0.748622        0.937399        0.909417 
        0.75476        0.919097        0.892957 
       0.760888        0.902534        0.876934 
       0.767043        0.891666        0.861244 
       0.773185        0.873021        0.845974 
       0.779291        0.858104        0.831165 
       0.785407        0.843874        0.816693 
       0.791564        0.830069        0.802477 
       0.797719         0.81699         0.78861 
       0.803834         0.80368        0.775161 
       0.809972        0.789409         0.76198 
       0.816124        0.775681        0.749079 
       0.822261        0.761787        0.736514 
       0.828378        0.751128        0.724278 
       0.834502        0.740229        0.712312 
       0.840667        0.725733        0.700542 
       0.846816        0.714414        0.689073 
       0.852925        0.705472        0.677935 
       0.859047        0.694208        0.667022 
       0.865192        0.681939        0.656316 
       0.871341        0.671235        0.645839 
       0.877463         0.66307        0.635641 
       0.883569        0.651179         0.62569 
       0.889708        0.641515        0.615904 
       0.895864        0.631579        0.606303 
       0.902008        0.621359        0.596929 
       0.908149        0.612119        0.587761 
       0.914301        0.600887        0.578771 
       0.920448        0.593117         0.56998 
       0.926574        0.583994        0.561404 
       0.932687        0.575221        0.553023 
       0.938823        0.569148        0.544785 
       0.944975        0.560371        0.536697 
       0.951105         0.55261        0.528804 
       0.957225        0.546011        0.521083 
       0.963368        0.537441        0.513492 
       0.969511        0.528841        0.506053 
       0.975621        0.521022        0.498802 
       0.981748        0.515748        0.491676 
       0.987916        0.507812        0.484645 
        0.99406        0.500383        0.477779 
        1.00019        0.494807        0.471061 
        1.00632        0.486278        0.464479 
        1.01246        0.479656        0.458014 
        1.01859        0.474202        0.451684 
        1.02471        0.467456        0.445482 
        1.03085        0.462645        0.439375 
        1.03698        0.455306        0.433397 
        1.04314          0.4497        0.427505 
        1.04929        0.443096        0.421737 
        1.05541        0.438194          0.4161 
        1.06154        0.431873        0.410552 
        1.06769        0.425874        0.405097 
        1.07382        0.420787         0.39976 
        1.07993        0.414943        0.394532 
        1.08607        0.411221        0.389376 
        1.09222        0.404957        0.384308 
        1.09836        0.401317        0.379336 
        1.10449        0.396022        0.374459 
        1.11063        0.390021        0.369663 
        1.11677        0.384645        0.364953 
         1.1229        0.380744        0.360333 
        1.12903        0.375534        0.355791 
        1.13518        0.371729        0.351323 
        1.14131        0.366666        0.346935 
        1.14745        0.360933        0.342625 
        1.15359         0.35783        0.338387 
        1.15973        0.352554         0.33422 
        1.16584        0.349862        0.330143 
        1.17197        0.345341        0.326127 
        1.17811        0.341816        0.322167 
        1.18424        0.338347        0.318284 
        1.19038        0.333488        0.314454 
        1.19652        0.328823        0.310689 
        1.20267         0.32633        0.306986 
        1.20881        0.322094        0.303345 
        1.21495        0.319174        0.299769 
        1.22108        0.315191        0.296251 
         1.2272        0.312048        0.292798 
        1.23334         0.30797        0.289393 
        1.23949        0.304622        0.286034 
        1.24562        0.301293        0.282738 
        1.25174        0.298232        0.279499 
        1.25789        0.295243        0.276302 
        1.26402        0.290977         0.27316 
        1.27014        0.288217        0.270076 
        1.27628        0.285647         0.26703 
        1.28244         0.28139        0.264025 
        1.28858        0.278969        0.261071 
        1.29471        0.276771        0.258169 
        1.30084        0.273109        0.255314 
        1.30697        0.270176        0.252498 
        1.31312        0.266486         0.24972 
        1.31925        0.264138        0.246993 
        1.32537        0.261778         0.24431 
        1.33151        0.259366        0.241657 
        1.33765        0.256698        0.239045 
        1.34378        0.253306        0.236477 
        1.34992        0.250958        0.233945 
        1.35606        0.248463        0.231445 
         1.3622        0.245979        0.228986 
        1.36833        0.243281        0.226569 
        1.37445        0.240202        0.224188 
        1.38059        0.238089        0.221835 
        1.38675        0.236741        0.219509 
        1.39288        0.233922        0.217226 
        1.39901        0.231555        0.214977 
        1.40515        0.229591        0.212755 
         1.4113        0.226684        0.210566 
        1.41742        0.224543        0.208415 
        1.42355        0.222921        0.206291 
         1.4297        0.220166         0.20419 
        1.43585        0.218323        0.202119 
        1.44198        0.216627        0.200085 
        1.44809        0.214014        0.198083 
        1.45423        0.212178        0.196101 
        1.46036        0.209991         0.19415 
        1.46649        0.208543        0.192225 
        1.47263        0.206223        0.190324 
        1.47877        0.203902         0.18845 
        1.48491        0.202376        0.186599 
        1.49104        0.199968        0.184776 
        1.49718        0.198234        0.182976 
        1.50333        0.196916        0.181198 
        1.50947        0.194795        0.179447 
         1.5156        0.192892        0.177721 
        1.52172        0.191291        0.176019 
        1.52787        0.189507        0.174335 
          1.534        0.187509        0.172676 
        1.54013         0.18583        0.171039 
        1.54627        0.184541        0.169422 
        1.55241         0.18252        0.167825 
        1.55855        0.180687        0.166251 
        1.56467        0.179882        0.164701 
         1.5708         0.17787        0.163167 
        1.57695        0.176338        0.161651 
        1.58308        0.174661        0.160157 
        1.58922        0.173281        0.158681 
        1.59535        0.171739        0.157224 
         1.6015        0.170069        0.155784 
        1.60764         0.16873        0.154362 
        1.61376        0.166931        0.152963 
        1.61989         0.16574        0.151579 
        1.62604         0.16451         0.15021 
        1.63218        0.163038        0.148858 
        1.63831        0.161736        0.147526 
        1.64444        0.160311         0.14621 
        1.65059        0.158905        0.144907 
        1.65673        0.157673        0.143621 
        1.66285        0.156566        0.142355 
        1.66898        0.155135        0.141103 
        1.67512        0.153553        0.139864 
        1.68127        0.152239        0.138639 
         1.6874        0.151371        0.137431 
        1.69353        0.149639        0.136239 
        1.69967        0.149008        0.135058 
        1.70581        0.147245        0.133891 
        1.71193         0.14621        0.132743 
        1.71806        0.144821        0.131605 
        1.72421        0.144116        0.130479 
        1.73035        0.142631        0.129367 
        1.73649        0.141749        0.128269 
        1.74262        0.140523        0.127184 
        1.74876        0.139328        0.126111 
        1.75489        0.138373        0.125053 
        1.76101        0.137005        0.124007 
        1.76715        0.135962        0.122972 
        1.77329        0.134746        0.121947 
        1.77943        0.133799        0.120934 
        1.78557        0.132987        0.119933 
        1.79171        0.131937        0.118944 
        1.79785         0.13087        0.117966 
        1.80399        0.129812        0.116999 
        1.81012        0.128862        0.116044 
        1.81625        0.127823        0.115101 
        1.82239        0.126863        0.114166 
        1.82853        0.125751        0.113242 
        1.83466        0.124954         0.11233 
        1.84078        0.123989        0.111428 
        1.84692        0.122904        0.110535 
        1.85306        0.122245        0.109651 
         1.8592        0.121069        0.108778 
        1.86533        0.120386        0.107915 
        1.87147        0.119413         0.10706 
        1.87761        0.118696        0.106214 
        1.88375        0.117611        0.105378 
        1.88988        0.116759        0.104552 
        1.89601        0.115832        0.103734 
        1.90215        0.115105        0.102925 
        1.90829        0.114073        0.102125 
        1.91442        0.113567        0.101333 
        1.92056        0.112567         0.10055 
         1.9267        0.111647       0.0997749 
        1.93284        0.110882       0.0990073 
        1.93897         0.11006       0.0982493 
        1.94509        0.109462        0.097501 
        1.95123        0.108586       0.0967585 
        1.95737         0.10789       0.0960233 
        1.96349        0.107005       0.0952976 
        1.96964        0.106173       0.0945773 
        1.97578        0.105467       0.0938642 
        1.98192        0.104855       0.0931599 
        1.98805        0.104172       0.0924628 
        1.99419        0.103205       0.0917728 
        2.00033        0.102502       0.0910895 
        2.00647        0.102031       0.0904134 
         2.0126        0.101071       0.0897453 
        2.01874        0.100591        0.089083 
        2.02488       0.0998929       0.0884268 
        2.03101       0.0991802       0.0877784 
        2.03714       0.0983778       0.0871371 
        2.04328          0.0979       0.0865016 
        2.04941       0.0970201       0.0858729 
        2.05554       0.0965101       0.0852509 
        2.06167       0.0960522       0.0846343 
        2.06781       0.0951357       0.0840236 
        2.07396       0.0945444       0.0834182 
        2.08009       0.0939286       0.0828197 
        2.08622       0.0933577       0.0822278 
        2.09237       0.0927559       0.0816405 
        2.09851       0.0921483       0.0810589 
        2.10464       0.0915923       0.0804839 
        2.11077       0.0908711       0.0799152 
        2.11691       0.0903238       0.0793507 
        2.12305       0.0896904       0.0787916 
        2.12918       0.0892379       0.0782393 
        2.13531       0.0884715       0.0776923 
        2.14145       0.0878187       0.0771492 
         2.1476       0.0873909       0.0766107 
        2.15372       0.0869968         0.07608 
        2.15985        0.086286       0.0755539 
        2.16599       0.0857037       0.0750312 
        2.17213       0.0852024       0.0745141 
        2.17827       0.0845751       0.0740019 
         2.1844       0.0841907       0.0734951 
        2.19054       0.0835964       0.0729928 
        2.19666       0.0829853        0.072496 
         2.2028       0.0825064       0.0720033 
        2.20893        0.082157        0.071515 
        2.21508       0.0814398       0.0710307 
        2.22122       0.0808623       0.0705507 
        2.22736       0.0805878       0.0700762 
        2.23349       0.0800073       0.0696062 
        2.23962       0.0796355       0.0691402 
        2.24577       0.0789861       0.0686781 
         2.2519       0.0785609       0.0682209 
        2.25802       0.0780494       0.0677686 
        2.26417       0.0776141       0.0673191 
        2.27031       0.0770712       0.0668733 
        2.27644        0.076621       0.0664328 
        2.28257       0.0761642       0.0659964 
        2.28872       0.0757377        0.065563 
        2.29486        0.075442       0.0651337 
        2.30099       0.0747864        0.064709 
        2.30712        0.074363        0.064288 
        2.31326       0.0738288         0.06387 
         2.3194       0.0736467        0.063456 
        2.32553       0.0731029       0.0630463 
        2.33166       0.0728176       0.0626405 
         2.3378        0.072324       0.0622376 
        2.34394       0.0718248       0.0618382 
        2.35007       0.0713893       0.0614428 
        2.35619       0.0708643       0.0610514 
        2.36233       0.0705735       0.0606624 
        2.36848       0.0703014       0.0602761 
        2.37462        0.069719       0.0598939 
        2.38075       0.0694122       0.0595154 
        2.38689       0.0690281       0.0591399 
        2.39303       0.0686872       0.0587676 
        2.39916        0.068188        0.058399 
        2.40529       0.0678403       0.0580336 
        2.41143       0.0673909        0.057671 
        2.41757       0.0670467       0.0573114 
         2.4237       0.0667473       0.0569555 
        2.42983       0.0663576       0.0566027 
        2.43598       0.0660802       0.0562519 
        2.44211       0.0655583       0.0559047 
        2.44823       0.0652894       0.0555612 
        2.45437       0.0648375       0.0552196 
        2.46052       0.0645539       0.0548807 
        2.46665       0.0641096       0.0545452 
        2.47279       0.0637475       0.0542126 
        2.47892       0.0633006       0.0538826 
        2.48507       0.0630259        0.053555 
         2.4912       0.0627217       0.0532308 
