# k  (h/Mpc)    Pcb(k)  (Mpc/h)^3    Pcb_linear(k)  (Mpc/h)^3
     0.00783031         5503.95         5570.01 
       0.013688         6794.85         6770.73 
       0.019231         6776.53         6766.26 
      0.0249154         6121.18          6190.7 
      0.0312784         5308.95         5329.58 
      0.0375637         4559.88         4548.32 
      0.0433917         3961.64         3991.41 
      0.0492413         3587.82          3594.5 
      0.0555754          3242.1         3291.64 
      0.0619321         3059.69         3045.51 
       0.067871         2780.14         2814.64 
      0.0738098         2530.03         2561.36 
      0.0800417         2239.38         2279.58 
      0.0862327         1993.18         2009.94 
      0.0921407         1789.48         1787.24 
      0.0982031         1601.95         1607.88 
       0.104506         1496.41         1473.78 
       0.110769         1397.11         1380.52 
       0.116806         1314.93         1310.52 
       0.122832         1255.01         1243.71 
       0.129052         1163.29         1167.11 
       0.135211         1082.81         1081.35 
       0.141259         1009.93         992.617 
       0.147318         933.753         907.475 
       0.153489          852.65         832.087 
       0.159709         799.682         771.569 
       0.165845         764.502         726.512 
       0.171974         721.677         692.184 
       0.178125         691.882         663.107 
       0.184229         664.792         634.734 
        0.19034         620.404         603.878 
       0.196428         600.158         570.215 
       0.202534         573.766         535.069 
       0.208729         538.096          500.56 
       0.214876         505.325         469.787 
       0.220989         486.776          443.87 
       0.227147         460.307         422.476 
        0.23329         442.395          404.79 
       0.239377         431.191         389.336 
       0.245482         404.596         374.449 
       0.251667         397.824         358.999 
       0.257832          382.68         342.951 
       0.263955         366.966         326.738 
       0.270079         351.862         310.917 
        0.27624         344.004         296.107 
       0.282372         329.941         282.904 
        0.28843         318.032         271.436 
       0.294538         304.416         261.235 
       0.300721         300.535         251.855 
        0.30691         286.746         242.965 
       0.313033         279.484          234.31 
       0.319153         267.863         225.673 
       0.325316         261.336         217.014 
        0.33145         251.989         208.613 
       0.337538         247.583          200.67 
       0.343633          238.95         193.265 
       0.349808         231.313         186.367 
       0.355968         227.055         180.045 
       0.362074         220.774         174.225 
       0.368217          214.66         168.671 
       0.374374         207.762         163.303 
       0.380519          203.77          158.07 
       0.386598         198.333         153.003 
       0.392688          195.16         148.071 
        0.39888           189.9         143.243 
       0.405048         185.317         138.669 
       0.411186         181.154         134.376 
       0.417313         176.968         130.333 
       0.423458         173.165         126.499 
       0.429607         168.974         122.847 
       0.435692         163.632         119.372 
       0.441815         162.315         115.987 
       0.447964         159.451         112.693 
       0.454126          152.47         109.493 
       0.460267         150.739         106.411 
       0.466387         148.364         103.459 
        0.47254         145.312         100.618 
       0.478662         143.749         97.9145 
       0.484765         139.576         95.3332 
       0.490885          137.23         92.8506 
       0.497035         135.445         90.4501 
       0.503198          131.67          88.128 
       0.509342          129.31         85.8856 
       0.515458         127.413         83.7237 
       0.521598         125.598         81.6244 
       0.527764         123.621         79.5883 
       0.533884           121.6         77.6381 
           0.54         119.361         75.7579 
       0.546137         118.249         73.9378 
       0.552299         116.333         72.1753 
       0.558452         113.778         70.4765 
       0.564573         111.737         68.8419 
       0.570708         110.201         67.2548 
       0.576825         108.614         65.7203 
       0.582926         106.519         64.2361 
       0.589034          104.66         62.7955 
       0.595184         103.421         61.3903 
       0.601379         102.182           60.02 
       0.607522         99.7109         58.7041 
       0.613639         99.4508         57.4344 
       0.619772         97.1809            56.2 
       0.625918         96.1962              55 
       0.632068         95.0676         53.8344 
       0.638161         93.8863         52.7132 
         0.6443          92.577         51.6159 
       0.650464          91.417         50.5462 
       0.656582         90.2291         49.5147 
       0.662703         88.5375         48.5122 
       0.668861         87.5591         47.5321 
       0.675024         86.5053         46.5787 
       0.681124         85.4263         45.6614 
       0.687237         83.9075         44.7674 
       0.693381         83.0437         43.8933 
       0.699536         81.9335         43.0413 
       0.705665         82.2626         42.2157 
       0.711789         79.9963         41.4128 
       0.717957         79.4756         40.6254 
        0.72409         78.3472         39.8631 
       0.730186          77.045         39.1252 
       0.736317         76.8538         38.4021 
       0.742472         75.8582         37.6948 
       0.748622         75.1317         37.0061 
        0.75476         74.2844         36.3364 
       0.760888         73.2266         35.6843 
       0.767043         72.5114         35.0459 
       0.773185         71.6413         34.4245 
       0.779291         71.1342         33.8219 
       0.785407          70.479          33.233 
       0.791564         69.5568         32.6545 
       0.797719         68.5018         32.0902 
       0.803834          68.263          31.543 
       0.809972         67.0806         31.0066 
       0.816124         66.5224         30.4816 
       0.822261         66.0236         29.9703 
       0.828378         65.4872         29.4724 
       0.834502         64.7615         28.9855 
       0.840667         64.1733         28.5065 
       0.846816         63.3345         28.0398 
       0.852925         62.8035         27.5866 
       0.859047          61.974         27.1426 
       0.865192         61.6463         26.7069 
       0.871341         61.2996         26.2806 
       0.877463         60.1762         25.8656 
       0.883569         59.8066         25.4607 
       0.889708         59.4736         25.0624 
       0.895864         58.9108         24.6718 
       0.902008         58.3728         24.2903 
       0.908149         57.9233         23.9172 
       0.914301          57.447         23.5514 
       0.920448         56.8747         23.1937 
       0.926574         56.3664         22.8447 
       0.932687         55.9952         22.5037 
       0.938823         55.1312         22.1685 
       0.944975         54.9753         21.8393 
       0.951105         54.4246         21.5181 
       0.957225         53.7461          21.204 
       0.963368          53.694         20.8951 
       0.969511         53.2472         20.5924 
       0.975621         52.8204         20.2973 
       0.981748         52.2127         20.0073 
       0.987916          51.895         19.7212 
        0.99406         51.5782         19.4419 
        1.00019         50.9377         19.1685 
        1.00632         50.7228         18.9007 
        1.01246         50.2994         18.6376 
        1.01859          49.627           18.38 
        1.02471         49.7302         18.1276 
        1.03085         49.1812         17.8791 
        1.03698         48.6787         17.6358 
        1.04314         48.2339         17.3961 
        1.04929         48.0037         17.1614 
        1.05541          47.485          16.932 
        1.06154         47.4284         16.7062 
        1.06769         46.9642         16.4843 
        1.07382         46.6825         16.2671 
        1.07993         46.4777         16.0543 
        1.08607         45.9468         15.8445 
        1.09222         45.7732         15.6383 
        1.09836         45.4009          15.436 
        1.10449         45.0531         15.2375 
        1.11063          44.548         15.0424 
        1.11677         44.3299         14.8507 
         1.1229         44.1501         14.6627 
        1.12903         43.5188         14.4779 
        1.13518         43.5734         14.2961 
        1.14131         43.3689         14.1175 
        1.14745         42.7778         13.9421 
        1.15359         42.7367         13.7697 
        1.15973         42.2306         13.6001 
        1.16584         41.9579         13.4342 
        1.17197         41.8362         13.2708 
        1.17811         41.5029         13.1096 
        1.18424          41.093         12.9516 
        1.19038         41.0152         12.7958 
        1.19652          40.809         12.6426 
        1.20267         40.4948         12.4919 
        1.20881          40.188         12.3437 
        1.21495         39.8881         12.1982 
        1.22108         39.6617         12.0551 
         1.2272         39.2419         11.9146 
        1.23334         39.1337          11.776 
        1.23949         39.0211         11.6393 
        1.24562         38.7056         11.5052 
        1.25174         38.5383         11.3734 
        1.25789         38.2644         11.2433 
        1.26402         37.9939         11.1155 
        1.27014         37.6463         10.9899 
        1.27628         37.5231          10.866 
        1.28244         37.2608         10.7437 
        1.28858         37.1319         10.6235 
        1.29471         36.9612         10.5054 
        1.30084         36.7327         10.3892 
        1.30697          36.424         10.2747 
        1.31312         36.1197         10.1616 
        1.31925         36.0487         10.0507 
        1.32537         35.8603         9.94148 
        1.33151         35.5845         9.83352 
        1.33765         35.5364         9.72724 
        1.34378         35.2959         9.62275 
        1.34992         34.8816         9.51972 
        1.35606         34.7336         9.41799 
         1.3622         34.5512         9.31793 
        1.36833         34.3684         9.21957 
        1.37445         34.3501         9.12269 
        1.38059         34.1105         9.02691 
        1.38675         33.7927         8.93228 
        1.39288         33.7165         8.83939 
        1.39901         33.4155         8.74788 
        1.40515           33.29         8.65745 
         1.4113         33.1743         8.56835 
        1.41742         32.8363         8.48085 
        1.42355         32.7636         8.39441 
         1.4297         32.5537         8.30892 
        1.43585         32.5033         8.22465 
        1.44198         32.1984         8.14189 
        1.44809          32.062         8.06042 
        1.45423         31.9459         7.97977 
        1.46036         31.8235         7.90038 
        1.46649         31.5737         7.82204 
        1.47263         31.4173          7.7447 
        1.47877         31.3184         7.66844 
        1.48491         31.1469         7.59309 
        1.49104         31.0006         7.51892 
        1.49718          30.706         7.44569 
        1.50333          30.669         7.37332 
        1.50947         30.5252         7.30205 
         1.5156         30.3138         7.23185 
        1.52172         30.1167         7.16256 
        1.52787         30.1253         7.09405 
          1.534         29.8568         7.02653 
        1.54013         29.6609         6.95995 
        1.54627         29.6151         6.89412 
        1.55241         29.4095         6.82914 
        1.55855         29.2522         6.76509 
        1.56467         29.0782         6.70204 
         1.5708         29.0448         6.63962 
        1.57695         28.7398          6.5779 
        1.58308         28.7924         6.51711 
        1.58922         28.5983         6.45706 
        1.59535         28.4031         6.39778 
         1.6015         28.2708         6.33917 
        1.60764         28.1985         6.28133 
        1.61376         27.9996         6.22437 
        1.61989         27.7928         6.16807 
        1.62604         27.7791         6.11234 
        1.63218           27.58         6.05734 
        1.63831         27.5042         6.00315 
        1.64444         27.3632          5.9496 
        1.65059         27.1686         5.89657 
        1.65673         27.0566         5.84425 
        1.66285         26.9559         5.79272 
        1.66898         26.8202         5.74179 
        1.67512          26.741         5.69137 
        1.68127         26.5298         5.64152 
         1.6874         26.4451         5.59237 
        1.69353          26.346         5.54384 
        1.69967         26.1758         5.49577 
        1.70581         26.0761          5.4483 
        1.71193         25.9622         5.40157 
        1.71806         25.8241         5.35529 
        1.72421         25.6797         5.30946 
        1.73035         25.5839         5.26422 
        1.73649         25.4924         5.21952 
        1.74262         25.3551         5.17538 
        1.74876         25.3061         5.13171 
        1.75489         25.1277         5.08865 
        1.76101         25.0272         5.04609 
        1.76715         24.9166         5.00397 
        1.77329         24.8464         4.96227 
        1.77943         24.6916         4.92104 
        1.78557         24.5924         4.88033 
        1.79171            24.5         4.84008 
        1.79785         24.3552         4.80028 
        1.80399         24.2416         4.76093 
        1.81012         24.2093         4.72208 
        1.81625         24.0732         4.68368 
        1.82239         24.0312         4.64566 
        1.82853         23.8096         4.60807 
        1.83466         23.6966         4.57094 
        1.84078         23.5528         4.53425 
        1.84692          23.539         4.49792 
        1.85306         23.4098         4.46193 
         1.8592         23.2955         4.42639 
        1.86533         23.1858         4.39127 
        1.87147         23.0923         4.35648 
        1.87761         23.0748         4.32206 
        1.88375         22.9391         4.28804 
        1.88988         22.8623         4.25444 
        1.89601         22.6857         4.22117 
        1.90215         22.6394         4.18824 
        1.90829         22.5787         4.15567 
        1.91442         22.4368         4.12344 
        1.92056         22.3655         4.09159 
         1.9267          22.248         4.06005 
        1.93284         22.1347         4.02881 
        1.93897         22.0834         3.99797 
        1.94509         21.9845         3.96752 
        1.95123         21.8471          3.9373 
        1.95737         21.7897         3.90739 
        1.96349         21.6903         3.87786 
        1.96964         21.5797         3.84855 
        1.97578         21.5405         3.81953 
        1.98192         21.3818         3.79087 
        1.98805         21.3486          3.7625 
        1.99419         21.2414         3.73442 
        2.00033         21.1035         3.70662 
        2.00647         21.0368         3.67911 
         2.0126         20.9286         3.65192 
        2.01874         20.8695         3.62497 
        2.02488         20.8565         3.59827 
        2.03101         20.7271         3.57188 
        2.03714         20.6255         3.54579 
        2.04328         20.5236         3.51993 
        2.04941         20.4502         3.49435 
        2.05554         20.4046         3.46904 
        2.06167         20.3197         3.44394 
        2.06781         20.2315          3.4191 
        2.07396         20.1508         3.39446 
        2.08009         20.0903          3.3701 
        2.08622          19.965         3.34602 
        2.09237         19.8986         3.32212 
        2.09851         19.8104         3.29845 
        2.10464         19.7562         3.27506 
        2.11077         19.6122         3.25191 
        2.11691         19.6027         3.22894 
        2.12305         19.4974         3.20619 
        2.12918         19.4376         3.18372 
        2.13531           19.35         3.16146 
        2.14145         19.2748         3.13936 
         2.1476         19.1833         3.11745 
        2.15372         19.1199         3.09585 
        2.15985         19.0069         3.07444 
        2.16599         18.9671         3.05318 
        2.17213          18.907         3.03213 
        2.17827         18.7995         3.01129 
         2.1844         18.7114         2.99067 
        2.19054         18.6516         2.97023 
        2.19666         18.6096         2.95001 
         2.2028         18.5529         2.92996 
        2.20893         18.4259         2.91009 
        2.21508         18.3636         2.89039 
        2.22122         18.2579         2.87086 
        2.22736         18.2334         2.85155 
        2.23349         18.1419         2.83242 
        2.23962         18.0643         2.81346 
        2.24577         17.9735         2.79465 
         2.2519         17.9486         2.77605 
        2.25802         17.8919         2.75764 
        2.26417         17.8211         2.73935 
        2.27031         17.7349         2.72121 
        2.27644         17.6797         2.70329 
        2.28257         17.5914         2.68553 
        2.28872         17.5055          2.6679 
        2.29486         17.4568         2.65042 
        2.30099         17.3774         2.63315 
        2.30712         17.3693         2.61601 
        2.31326          17.274           2.599 
         2.3194         17.2017         2.58216 
        2.32553         17.1259         2.56549 
        2.33166         17.0353         2.54897 
         2.3378         16.9743         2.53258 
        2.34394         16.9314         2.51632 
        2.35007         16.8555         2.50023 
        2.35619         16.7569         2.48431 
        2.36233          16.729         2.46848 
        2.36848         16.6644         2.45276 
        2.37462         16.6353         2.43721 
        2.38075         16.5472          2.4218 
        2.38689         16.5154         2.40652 
        2.39303         16.4119         2.39138 
        2.39916         16.3612         2.37638 
        2.40529         16.2922         2.36151 
        2.41143         16.2476         2.34675 
        2.41757         16.1858         2.33212 
         2.4237          16.112         2.31764 
        2.42983         16.0623         2.30328 
        2.43598          16.001         2.28901 
        2.44211         15.9251         2.27488 
        2.44823         15.8565          2.2609 
        2.45437         15.8291           2.247 
        2.46052         15.7653         2.23321 
        2.46665         15.7137         2.21956 
        2.47279         15.6344         2.20602 
        2.47892          15.604         2.19259 
        2.48507          15.542         2.17926 
         2.4912         15.4799         2.16607 
