# k  (h/Mpc)    Pcb(k)  (Mpc/h)^3    Pcb_linear(k)  (Mpc/h)^3
     0.00783031         11140.1         11292.5 
       0.013688         13819.3         13723.2 
       0.019231         13735.9         13710.9 
      0.0249154         12329.1         12542.4 
      0.0312784         10708.7         10796.6 
      0.0375637          9220.8         9213.32 
      0.0433917         7970.72         8084.79 
      0.0492413         7237.06         7280.52 
      0.0555754          6495.2         6666.88 
      0.0619321          6178.3         6168.24 
       0.067871         5571.76         5700.53 
      0.0738098         5074.41         5187.49 
      0.0800417         4480.95         4616.76 
      0.0862327         4005.96         4070.63 
      0.0921407         3621.54         3619.58 
      0.0982031         3241.24         3256.29 
       0.104506         3051.09         2984.71 
       0.110769         2845.13         2795.83 
       0.116806         2681.13         2654.05 
       0.122832         2554.16         2518.74 
       0.129052         2356.92          2363.6 
       0.135211            2203         2189.92 
       0.141259         2072.06         2010.21 
       0.147318         1926.71         1837.78 
       0.153489          1759.9          1685.1 
       0.159709         1662.38         1562.54 
       0.165845         1598.46         1471.29 
       0.171974         1513.82         1401.77 
       0.178125         1446.58         1342.88 
       0.184229         1387.81         1285.42 
        0.19034         1297.31         1222.93 
       0.196428         1263.69         1154.76 
       0.202534         1210.95         1083.58 
       0.208729         1144.33          1013.7 
       0.214876          1085.1         951.379 
       0.220989         1047.89         898.893 
       0.227147         998.894         855.567 
        0.23329         960.551          819.75 
       0.239377         941.798         788.454 
       0.245482         880.315         758.305 
       0.251667         872.068         727.017 
       0.257832         837.635         694.516 
       0.263955          807.75         661.683 
       0.270079         776.903         629.643 
        0.27624         766.227         599.651 
       0.282372         734.248         572.914 
        0.28843         719.436         549.689 
       0.294538         683.769         529.032 
       0.300721          680.35         510.035 
        0.30691         649.748         492.032 
       0.313033         636.763         474.505 
       0.319153         618.906         457.013 
       0.325316         599.968         439.477 
        0.33145         582.921         422.465 
       0.337538         574.448          406.38 
       0.343633         556.748         391.383 
       0.349808         537.573         377.415 
       0.355968         533.269         364.612 
       0.362074         524.019         352.824 
       0.368217         509.211         341.578 
       0.374374         487.958         330.707 
       0.380519         485.308          320.11 
       0.386598         472.824         309.848 
       0.392688          469.92          299.86 
        0.39888         456.244         290.083 
       0.405048         446.861          280.82 
       0.411186         439.101         272.126 
       0.417313         430.653         263.938 
       0.423458         422.679         256.175 
       0.429607         414.946         248.779 
       0.435692         404.749         241.742 
       0.441815         401.427         234.887 
       0.447964          393.17         228.216 
       0.454126         382.478         221.735 
       0.460267         376.618         215.494 
       0.466387         372.343         209.516 
        0.47254         364.655         203.763 
       0.478662         363.698         198.288 
       0.484765         351.704          193.06 
       0.490885         348.108         188.032 
       0.497035         342.097         183.171 
       0.503198         336.203         178.469 
       0.509342         333.544         173.927 
       0.515458         329.664          169.55 
       0.521598         322.521         165.298 
       0.527764         317.176         161.175 
       0.533884         314.633         157.225 
           0.54         310.127         153.418 
       0.546137         308.707         149.732 
       0.552299         302.197         146.163 
       0.558452         300.268         142.722 
       0.564573         295.685         139.412 
       0.570708         290.151         136.198 
       0.576825         285.317         133.091 
       0.582926         282.866         130.085 
       0.589034         280.109         127.168 
       0.595184         277.366         124.322 
       0.601379         274.029         121.547 
       0.607522         269.438         118.882 
       0.613639         267.935         116.311 
       0.619772         261.825         113.811 
       0.625918         260.667         111.381 
       0.632068         256.752          109.02 
       0.638161          255.64          106.75 
         0.6443         251.328         104.528 
       0.650464         248.988         102.361 
       0.656582         247.208         100.273 
       0.662703         245.581         98.2423 
       0.668861         241.164         96.2575 
       0.675024         238.437         94.3268 
       0.681124         237.326         92.4692 
       0.687237         234.286         90.6586 
       0.693381         230.776         88.8886 
       0.699536         229.013         87.1631 
       0.705665         227.375         85.4913 
       0.711789         224.772         83.8653 
       0.717957         223.613         82.2708 
        0.72409         221.009          80.727 
       0.730186         218.442         79.2326 
       0.736317         216.165         77.7683 
       0.742472         215.087         76.3359 
       0.748622         213.131         74.9413 
        0.75476         211.314         73.5849 
       0.760888         208.578         72.2645 
       0.767043         208.392         70.9716 
       0.773185         205.975         69.7133 
       0.779291         202.183         68.4929 
       0.785407         201.673         67.3003 
       0.791564         199.734         66.1288 
       0.797719         197.226         64.9861 
       0.803834         196.198         63.8778 
       0.809972         194.807         62.7916 
       0.816124         194.584         61.7285 
       0.822261         191.877         60.6931 
       0.828378         190.171         59.6848 
       0.834502         189.891         58.6987 
       0.840667          186.99         57.7287 
       0.846816         185.504         56.7836 
       0.852925         184.808         55.8658 
       0.859047         182.905         54.9665 
       0.865192         181.231         54.0842 
       0.871341         179.638         53.2209 
       0.877463         178.348         52.3805 
       0.883569         177.628         51.5605 
       0.889708         175.874          50.754 
       0.895864         173.826         49.9629 
       0.902008         173.117         49.1904 
       0.908149         172.456         48.4349 
       0.914301         170.318         47.6941 
       0.920448         169.083         46.9697 
       0.926574         168.159         46.2629 
       0.932687         167.892         45.5723 
       0.938823         165.698         44.8934 
       0.944975          164.23          44.227 
       0.951105          163.58         43.5765 
       0.957225         161.907         42.9403 
       0.963368         160.098         42.3147 
       0.969511         159.694         41.7017 
       0.975621         158.584         41.1042 
       0.981748         158.223         40.5169 
       0.987916         156.407         39.9376 
        0.99406         155.162         39.3718 
        1.00019         154.979         38.8182 
        1.00632         153.486         38.2758 
        1.01246         152.549          37.743 
        1.01859          151.63         37.2214 
        1.02471         150.278         36.7103 
        1.03085         148.735         36.2071 
        1.03698         148.179         35.7144 
        1.04314         146.844         35.2289 
        1.04929         145.964         34.7536 
        1.05541         145.454          34.289 
        1.06154         144.371         33.8318 
        1.06769         144.247         33.3823 
        1.07382         142.913         32.9425 
        1.07993         141.688         32.5117 
        1.08607         140.853         32.0868 
        1.09222         140.342         31.6692 
        1.09836         139.076         31.2595 
        1.10449         137.883         30.8576 
        1.11063         136.883         30.4623 
        1.11677         136.632         30.0742 
         1.1229         135.264         29.6935 
        1.12903         134.592         29.3192 
        1.13518         134.345          28.951 
        1.14131         132.981         28.5894 
        1.14745         132.431         28.2342 
        1.15359         131.505         27.8851 
        1.15973         131.066         27.5417 
        1.16584         129.622         27.2056 
        1.17197         129.121         26.8748 
        1.17811         128.426         26.5484 
        1.18424         127.796         26.2284 
        1.19038         127.315         25.9128 
        1.19652         126.316         25.6026 
        1.20267         125.621         25.2974 
        1.20881         124.596         24.9974 
        1.21495         124.036         24.7026 
        1.22108         123.433         24.4128 
         1.2272         122.275         24.1282 
        1.23334         121.819         23.8476 
        1.23949         120.789         23.5708 
        1.24562         120.339         23.2992 
        1.25174         119.223         23.0323 
        1.25789         118.814         22.7688 
        1.26402         118.063           22.51 
        1.27014          117.38         22.2558 
        1.27628         116.829         22.0048 
        1.28244          116.26         21.7572 
        1.28858         115.874         21.5137 
        1.29471         114.585         21.2746 
        1.30084         114.236         21.0393 
        1.30697         113.456         20.8072 
        1.31312         113.101         20.5784 
        1.31925         112.102         20.3536 
        1.32537          111.66         20.1325 
        1.33151         110.617         19.9139 
        1.33765         110.292         19.6987 
        1.34378         109.636         19.4871 
        1.34992         109.391         19.2784 
        1.35606         108.649         19.0724 
         1.3622         107.755         18.8698 
        1.36833         107.301         18.6706 
        1.37445         106.628         18.4744 
        1.38059         106.145         18.2804 
        1.38675         105.377         18.0888 
        1.39288         105.024         17.9007 
        1.39901         104.582         17.7154 
        1.40515          103.79         17.5322 
         1.4113         103.054         17.3518 
        1.41742         102.828         17.1746 
        1.42355         102.054         16.9995 
         1.4297         101.575         16.8264 
        1.43585         100.737         16.6558 
        1.44198         100.499         16.4882 
        1.44809         99.7975         16.3232 
        1.45423         99.2285         16.1599 
        1.46036          99.009         15.9991 
        1.46649         98.2855         15.8404 
        1.47263         97.7429         15.6838 
        1.47877         97.5035         15.5294 
        1.48491         96.5318         15.3768 
        1.49104         96.3304         15.2266 
        1.49718         95.6054         15.0783 
        1.50333         95.1876         14.9317 
        1.50947         94.7157         14.7874 
         1.5156         94.1169         14.6452 
        1.52172         93.5653         14.5049 
        1.52787         93.2784         14.3662 
          1.534         92.6291         14.2294 
        1.54013         92.0823         14.0946 
        1.54627          91.763         13.9613 
        1.55241         91.1564         13.8297 
        1.55855         90.8085            13.7 
        1.56467         90.3645         13.5723 
         1.5708         89.7534         13.4459 
        1.57695          89.678         13.3209 
        1.58308         88.7299         13.1978 
        1.58922          88.637         13.0762 
        1.59535         88.1378         12.9562 
         1.6015         87.5474         12.8375 
        1.60764         87.1217         12.7203 
        1.61376         86.8998          12.605 
        1.61989         86.1949          12.491 
        1.62604         85.9879         12.3781 
        1.63218         85.4987         12.2667 
        1.63831         84.7317          12.157 
        1.64444          84.503         12.0485 
        1.65059         84.0303         11.9412 
        1.65673         83.4179         11.8352 
        1.66285         83.2026         11.7309 
        1.66898         82.6693         11.6277 
        1.67512         82.2198         11.5256 
        1.68127           81.87         11.4247 
         1.6874         81.4148         11.3251 
        1.69353          80.972         11.2269 
        1.69967         80.4868         11.1295 
        1.70581          80.302         11.0334 
        1.71193         80.0218         10.9387 
        1.71806         79.3712          10.845 
        1.72421         78.9686         10.7522 
        1.73035         78.5752         10.6606 
        1.73649         78.1997         10.5701 
        1.74262         77.7999         10.4807 
        1.74876         77.4948         10.3923 
        1.75489         76.8704          10.305 
        1.76101         76.6986         10.2189 
        1.76715          76.167         10.1336 
        1.77329         75.9158         10.0491 
        1.77943         75.3391         9.96561 
        1.78557         75.2137         9.88318 
        1.79171         74.6585         9.80166 
        1.79785         74.2942         9.72106 
        1.80399          74.051         9.64138 
        1.81012         73.7635         9.56271 
        1.81625         73.1639         9.48495 
        1.82239         72.9158         9.40794 
        1.82853           72.62         9.33182 
        1.83466         72.2309         9.25662 
        1.84078         71.9387         9.18233 
        1.84692         71.3481         9.10874 
        1.85306         71.0458         9.03587 
         1.8592         70.6596         8.96391 
        1.86533         70.3615         8.89277 
        1.87147         69.8772         8.82232 
        1.87761         69.6496         8.75261 
        1.88375         69.2623         8.68373 
        1.88988         69.0042         8.61567 
        1.89601         68.5861         8.54831 
        1.90215         68.2704         8.48161 
        1.90829         68.0092         8.41566 
        1.91442         67.6345          8.3504 
        1.92056         67.0989          8.2859 
         1.9267          66.979         8.22201 
        1.93284         66.4967         8.15876 
        1.93897         66.1687          8.0963 
        1.94509         65.8914         8.03463 
        1.95123          65.565         7.97345 
        1.95737         65.3457         7.91286 
        1.96349         64.8143         7.85306 
        1.96964         64.6659         7.79371 
        1.97578         64.3682         7.73494 
        1.98192         64.0344          7.6769 
        1.98805         63.7992         7.61946 
        1.99419          63.312          7.5626 
        2.00033         63.0577         7.50629 
        2.00647         62.8251         7.45058 
         2.0126         62.3243         7.39552 
        2.01874         62.0549         7.34094 
        2.02488         61.8597         7.28686 
        2.03101         61.5938         7.23343 
        2.03714         61.1946         7.18059 
        2.04328         60.9844         7.12822 
        2.04941         60.6232         7.07641 
        2.05554         60.3517         7.02516 
        2.06167         60.0269         6.97434 
        2.06781         59.7794         6.92402 
        2.07396         59.4084         6.87413 
        2.08009         59.2403         6.82481 
        2.08622         58.9424         6.77603 
        2.09237         58.5654         6.72764 
        2.09851         58.4326         6.67971 
        2.10464         58.0206         6.63233 
        2.11077         57.7027         6.58546 
        2.11691         57.4463         6.53894 
        2.12305         57.2243         6.49288 
        2.12918          56.956         6.44736 
        2.13531          56.594         6.40228 
        2.14145         56.3431         6.35753 
         2.1476         56.1482         6.31315 
        2.15372         55.8443         6.26942 
        2.15985         55.5471         6.22607 
        2.16599          55.262           6.183 
        2.17213         55.0609         6.14038 
        2.17827         54.7697         6.09818 
         2.1844         54.4388         6.05641 
        2.19054         54.1598         6.01502 
        2.19666         53.9112         5.97408 
         2.2028         53.8299         5.93348 
        2.20893         53.5577         5.89324 
        2.21508         53.2225         5.85333 
        2.22122          53.001         5.81378 
        2.22736          52.788         5.77467 
        2.23349         52.5029         5.73594 
        2.23962         52.1476         5.69754 
        2.24577          51.886         5.65946 
         2.2519          51.605         5.62179 
        2.25802         51.5174         5.58451 
        2.26417         51.1553         5.54747 
        2.27031         50.9911         5.51074 
        2.27644         50.7708         5.47444 
        2.28257         50.4505         5.43848 
        2.28872         50.1617         5.40276 
        2.29486         50.0185         5.36738 
        2.30099         49.7985         5.33239 
        2.30712         49.5685          5.2977 
        2.31326         49.2551         5.26325 
         2.3194         48.9964         5.22913 
        2.32553         48.7448         5.19537 
        2.33166         48.5496         5.16193 
         2.3378         48.3002         5.12873 
        2.34394         48.0229         5.09581 
        2.35007         47.7574         5.06323 
        2.35619         47.6152         5.03098 
        2.36233          47.507         4.99893 
        2.36848         47.1706         4.96709 
        2.37462         46.9523         4.93559 
        2.38075         46.7685          4.9044 
        2.38689         46.5465         4.87346 
        2.39303         46.3277         4.84278 
        2.39916         46.1261         4.81241 
        2.40529         45.9159         4.78229 
        2.41143         45.7007         4.75242 
        2.41757         45.4357         4.72278 
         2.4237         45.3176         4.69345 
        2.42983         45.0296         4.66438 
        2.43598         44.7932         4.63547 
        2.44211         44.6477         4.60686 
        2.44823         44.3868         4.57856 
        2.45437          44.196         4.55041 
        2.46052         43.8909         4.52248 
        2.46665         43.7511         4.49483 
        2.47279         43.5846         4.46743 
        2.47892          43.394         4.44023 
        2.48507         43.1365         4.41324 
         2.4912         43.0032         4.38652 
