# k  (h/Mpc)    Pcb(k)  (Mpc/h)^3    Pcb_linear(k)  (Mpc/h)^3
     0.00783031         2650.33         2679.16 
       0.013688         3260.22         3257.44 
       0.019231         3258.89         3255.98 
      0.0249154         2956.73          2979.5 
      0.0312784         2561.07         2565.33 
      0.0375637          2195.9         2189.41 
      0.0433917         1914.39          1921.4 
      0.0492413         1730.57         1730.39 
      0.0555754         1570.74         1584.64 
      0.0619321         1473.42         1466.18 
       0.067871         1345.92         1355.05 
      0.0738098         1224.52         1233.12 
      0.0800417         1085.79         1097.48 
      0.0862327         963.604         967.673 
      0.0921407          861.52         860.459 
      0.0982031         772.072         774.107 
       0.104506         716.864         709.552 
       0.110769         669.911         664.655 
       0.116806         631.057         630.955 
       0.122832         602.138         598.792 
       0.129052         560.243         561.911 
       0.135211         520.086         520.625 
       0.141259         482.338         477.903 
       0.147318         444.435         436.911 
       0.153489         406.076         400.616 
       0.159709         378.765         371.479 
       0.165845         360.732         349.787 
       0.171974         340.336         333.259 
       0.178125         326.662          319.26 
       0.184229         313.778           305.6 
        0.19034         294.125         290.744 
       0.196428         282.186         274.537 
       0.202534         268.638         257.615 
       0.208729         250.972         241.001 
       0.214876           234.9         226.185 
       0.220989         225.414         213.707 
       0.227147         212.557         203.407 
        0.23329         204.071         194.892 
       0.239377         197.894         187.451 
       0.245482         187.312         180.284 
       0.251667         182.782         172.845 
       0.257832         175.323         165.118 
       0.263955         167.587         157.313 
       0.270079          160.31         149.695 
        0.27624         155.361         142.565 
       0.282372         148.918         136.208 
        0.28843          142.65         130.687 
       0.294538         137.108         125.776 
       0.300721         134.233         121.259 
        0.30691         128.328         116.979 
       0.313033         124.426         112.812 
       0.319153         118.585         108.654 
       0.325316         116.257         104.484 
        0.33145         111.636          100.44 
       0.337538          108.79         96.6158 
       0.343633         104.803         93.0504 
       0.349808         101.605         89.7295 
       0.355968         98.8876         86.6856 
       0.362074         95.7851         83.8831 
       0.368217         93.0093         81.2093 
       0.374374         90.2175         78.6249 
       0.380519         87.9576         76.1054 
       0.386598         85.4942         73.6656 
       0.392688         83.6642          71.291 
        0.39888         81.1755         68.9666 
       0.405048         79.1532         66.7644 
       0.411186           77.27         64.6974 
       0.417313         74.8585         62.7508 
       0.423458         73.0111         60.9051 
       0.429607         71.0985         59.1467 
       0.435692          68.804         57.4737 
       0.441815          67.859         55.8439 
       0.447964         66.6777         54.2579 
       0.454126         63.8706         52.7172 
       0.460267         62.8733         51.2333 
       0.466387         61.2006         49.8121 
        0.47254         60.2057         48.4443 
       0.478662         59.2053         47.1425 
       0.484765         57.4608         45.8997 
       0.490885         56.2275         44.7044 
       0.497035         55.4876         43.5487 
       0.503198         53.9857         42.4307 
       0.509342           52.62          41.351 
       0.515458         51.6278         40.3101 
       0.521598         50.8116         39.2994 
       0.527764         49.7997         38.3191 
       0.533884         48.9524         37.3801 
           0.54         47.9001         36.4749 
       0.546137         47.2131         35.5986 
       0.552299         46.4772           34.75 
       0.558452          45.081          33.932 
       0.564573          44.371         33.1451 
       0.570708          43.729         32.3809 
       0.576825         42.7462         31.6421 
       0.582926         41.9047         30.9275 
       0.589034         40.8864         30.2339 
       0.595184         40.3832         29.5574 
       0.601379         39.7042         28.8976 
       0.607522          38.879         28.2641 
       0.613639         38.5925         27.6527 
       0.619772         37.6022         27.0584 
       0.625918          37.397         26.4806 
       0.632068         36.7997         25.9195 
       0.638161         36.0882         25.3796 
         0.6443         35.4089         24.8513 
       0.650464         34.8267         24.3363 
       0.656582         34.5832         23.8397 
       0.662703         33.8988          23.357 
       0.668861         33.3316         22.8851 
       0.675024         32.7845         22.4261 
       0.681124         32.2183         21.9845 
       0.687237         31.6775          21.554 
       0.693381         31.4294         21.1332 
       0.699536         30.6658         20.7229 
       0.705665         30.6529         20.3255 
       0.711789         29.9254         19.9389 
       0.717957         29.5567         19.5598 
        0.72409         29.1406         19.1928 
       0.730186         28.7118         18.8375 
       0.736317         28.4471         18.4893 
       0.742472         27.9431         18.1488 
       0.748622         27.6945         17.8172 
        0.75476         27.2347         17.4947 
       0.760888          26.835         17.1808 
       0.767043         26.5328         16.8734 
       0.773185         26.0873         16.5743 
       0.779291         25.9598         16.2841 
       0.785407         25.6584         16.0006 
       0.791564         25.1974         15.7221 
       0.797719         24.6659         15.4504 
       0.803834         24.6382         15.1869 
       0.809972         24.3954         14.9286 
       0.816124         23.8465         14.6759 
       0.822261         23.6633         14.4297 
       0.828378         23.4394           14.19 
       0.834502         23.1955         13.9556 
       0.840667         22.9008         13.7249 
       0.846816         22.5118         13.5002 
       0.852925         22.3094          13.282 
       0.859047         22.0595         13.0682 
       0.865192         21.8486         12.8585 
       0.871341            21.7         12.6532 
       0.877463         21.2935         12.4534 
       0.883569         21.0565         12.2585 
       0.889708         20.7817         12.0667 
       0.895864         20.6214         11.8786 
       0.902008         20.4637          11.695 
       0.908149         20.2411         11.5153 
       0.914301         20.1365         11.3392 
       0.920448         19.7372          11.167 
       0.926574         19.5882          10.999 
       0.932687         19.3786         10.8348 
       0.938823          19.126         10.6734 
       0.944975         18.9416         10.5149 
       0.951105         18.7816         10.3603 
       0.957225         18.5879          10.209 
       0.963368         18.4472         10.0603 
       0.969511          18.281         9.91454 
       0.975621         18.1232         9.77248 
       0.981748         17.8745         9.63287 
       0.987916         17.7735         9.49512 
        0.99406         17.5453         9.36061 
        1.00019         17.3172         9.22899 
        1.00632         17.2613         9.10004 
        1.01246          17.103         8.97338 
        1.01859         16.8403         8.84935 
        1.02471         16.7879         8.72783 
        1.03085         16.6249          8.6082 
        1.03698         16.3644         8.49107 
        1.04314         16.2787         8.37564 
        1.04929         16.0852         8.26264 
        1.05541         15.9192         8.15218 
        1.06154         15.8274         8.04349 
        1.06769         15.7408         7.93662 
        1.07382         15.5398         7.83206 
        1.07993         15.4495         7.72962 
        1.08607         15.2734         7.62861 
        1.09222          15.178         7.52932 
        1.09836         14.9917         7.43191 
        1.10449         14.9004         7.33636 
        1.11063         14.7383         7.24239 
        1.11677         14.6826         7.15011 
         1.1229         14.5943         7.05962 
        1.12903         14.4036         6.97061 
        1.13518         14.2417         6.88308 
        1.14131           14.19         6.79711 
        1.14745         14.0728         6.71267 
        1.15359         13.9811         6.62965 
        1.15973         13.8477         6.54801 
        1.16584         13.6591         6.46812 
        1.17197         13.6225         6.38945 
        1.17811         13.5121         6.31186 
        1.18424         13.3951         6.23579 
        1.19038         13.3409         6.16076 
        1.19652         13.2092         6.08699 
        1.20267         13.0888         6.01445 
        1.20881         13.0437          5.9431 
        1.21495         12.9465         5.87303 
        1.22108         12.8016         5.80411 
         1.2272         12.7034         5.73647 
        1.23334         12.6062         5.66975 
        1.23949         12.4922         5.60395 
        1.24562         12.4525         5.53937 
        1.25174         12.3682         5.47592 
        1.25789           12.27         5.41328 
        1.26402         12.2194         5.35173 
        1.27014         12.1034         5.29129 
        1.27628         11.9544         5.23162 
        1.28244         11.8955         5.17275 
        1.28858         11.8793         5.11487 
        1.29471           11.75         5.05802 
        1.30084         11.6409         5.00208 
        1.30697         11.6037          4.9469 
        1.31312         11.4648         4.89249 
        1.31925         11.3877         4.83906 
        1.32537         11.3466         4.78649 
        1.33151         11.2678         4.73452 
        1.33765         11.1862         4.68334 
        1.34378         11.1103         4.63303 
        1.34992         11.0088         4.58343 
        1.35606          10.974         4.53445 
         1.3622         10.9046         4.48628 
        1.36833         10.8035         4.43892 
        1.37445         10.7583         4.39227 
        1.38059            10.7         4.34616 
        1.38675         10.5923          4.3006 
        1.39288         10.5589         4.25588 
        1.39901         10.4545         4.21181 
        1.40515         10.4107         4.16828 
         1.4113         10.3437         4.12538 
        1.41742         10.2733         4.08325 
        1.42355         10.1996         4.04163 
         1.4297         10.1513         4.00047 
        1.43585         10.1098          3.9599 
        1.44198         10.0432         3.92005 
        1.44809         9.97422         3.88083 
        1.45423         9.90223           3.842 
        1.46036         9.84406         3.80377 
        1.46649         9.80083         3.76605 
        1.47263         9.70895         3.72882 
        1.47877         9.65987          3.6921 
        1.48491         9.61435         3.65582 
        1.49104         9.55561         3.62011 
        1.49718         9.50297         3.58485 
        1.50333         9.45276         3.55001 
        1.50947         9.38642          3.5157 
         1.5156         9.33051         3.48189 
        1.52172         9.28965         3.44854 
        1.52787          9.2215         3.41555 
          1.534         9.16199         3.38304 
        1.54013         9.11466         3.35099 
        1.54627         9.04635         3.31929 
        1.55241         9.01353           3.288 
        1.55855         8.97149         3.25717 
        1.56467         8.90383         3.22681 
         1.5708         8.88924         3.19676 
        1.57695         8.80713         3.16704 
        1.58308         8.75526         3.13778 
        1.58922         8.72661         3.10886 
        1.59535         8.68744         3.08032 
         1.6015         8.61645          3.0521 
        1.60764         8.55933         3.02425 
        1.61376         8.54458         2.99683 
        1.61989         8.48142         2.96972 
        1.62604         8.44423         2.94289 
        1.63218         8.40868         2.91641 
        1.63831         8.36592         2.89032 
        1.64444         8.31177         2.86453 
        1.65059         8.24399           2.839 
        1.65673         8.24019         2.81382 
        1.66285         8.15242           2.789 
        1.66898         8.12898         2.76448 
        1.67512         8.09388         2.74021 
        1.68127         8.04429          2.7162 
         1.6874         8.01647         2.69254 
        1.69353         7.95631         2.66918 
        1.69967         7.92208         2.64603 
        1.70581         7.88905         2.62318 
        1.71193         7.83527         2.60068 
        1.71806         7.81811         2.57839 
        1.72421          7.7583         2.55633 
        1.73035         7.73953         2.53455 
        1.73649          7.6994         2.51303 
        1.74262          7.6517         2.49177 
        1.74876         7.62703         2.47075 
        1.75489         7.58886         2.45002 
        1.76101          7.5306         2.42953 
        1.76715         7.51725         2.40924 
        1.77329         7.46222         2.38917 
        1.77943         7.42176         2.36932 
        1.78557         7.41206         2.34972 
        1.79171         7.37088         2.33034 
        1.79785         7.31949         2.31118 
        1.80399          7.2835         2.29223 
        1.81012         7.26056         2.27353 
        1.81625         7.21895         2.25504 
        1.82239         7.19186         2.23673 
        1.82853         7.14699         2.21863 
        1.83466         7.11719         2.20076 
        1.84078         7.07998         2.18309 
        1.84692          7.0708          2.1656 
        1.85306         7.01931         2.14827 
         1.8592         6.98111         2.13116 
        1.86533         6.95696         2.11425 
        1.87147         6.92836          2.0975 
        1.87761         6.89868         2.08093 
        1.88375         6.85429         2.06455 
        1.88988         6.84316         2.04837 
        1.89601         6.80464         2.03235 
        1.90215         6.77128          2.0165 
        1.90829         6.73795         2.00082 
        1.91442         6.70882          1.9853 
        1.92056         6.68853         1.96997 
         1.9267         6.64736         1.95478 
        1.93284         6.61804         1.93974 
        1.93897         6.58329         1.92489 
        1.94509         6.56485         1.91023 
        1.95123         6.53194         1.89568 
        1.95737         6.49641         1.88128 
        1.96349         6.47858         1.86706 
        1.96964         6.44325         1.85295 
        1.97578         6.41247         1.83898 
        1.98192         6.39138         1.82518 
        1.98805         6.36831         1.81152 
        1.99419         6.33416           1.798 
        2.00033         6.32354         1.78462 
        2.00647         6.28645         1.77137 
         2.0126          6.2613         1.75828 
        2.01874         6.23285          1.7453 
        2.02488         6.20841         1.73245 
        2.03101         6.17568         1.71974 
        2.03714         6.14391         1.70718 
        2.04328         6.12499         1.69473 
        2.04941         6.09258         1.68241 
        2.05554         6.07465         1.67023 
        2.06167         6.04376         1.65814 
        2.06781         6.02823         1.64618 
        2.07396         6.01085         1.63432 
        2.08009         5.97759         1.62259 
        2.08622         5.94595           1.611 
        2.09237         5.93226         1.59949 
        2.09851         5.91561          1.5881 
        2.10464         5.88315         1.57683 
        2.11077         5.84543         1.56569 
        2.11691         5.82557         1.55463 
        2.12305         5.80928         1.54368 
        2.12918         5.79563         1.53286 
        2.13531         5.76409         1.52214 
        2.14145         5.74445          1.5115 
         2.1476         5.71383         1.50095 
        2.15372         5.69517         1.49055 
        2.15985         5.69041         1.48024 
        2.16599         5.64729            1.47 
        2.17213         5.63607         1.45987 
        2.17827         5.61752         1.44984 
         2.1844         5.59006         1.43991 
        2.19054         5.55501         1.43007 
        2.19666         5.54207         1.42033 
         2.2028         5.52307         1.41068 
        2.20893         5.50634         1.40111 
        2.21508         5.47678         1.39163 
        2.22122         5.45376         1.38222 
        2.22736         5.43699         1.37292 
        2.23349         5.42497         1.36372 
        2.23962         5.40406         1.35459 
        2.24577         5.37531         1.34553 
         2.2519         5.36527         1.33658 
        2.25802         5.33466         1.32771 
        2.26417         5.31716         1.31891 
        2.27031         5.29448         1.31017 
        2.27644         5.27313         1.30154 
        2.28257         5.25558         1.29299 
        2.28872         5.24233          1.2845 
        2.29486         5.22258         1.27609 
        2.30099         5.20208         1.26777 
        2.30712         5.18335         1.25952 
        2.31326          5.1516         1.25133 
         2.3194          5.1415         1.24322 
        2.32553         5.12955          1.2352 
        2.33166         5.11186         1.22724 
         2.3378         5.08627         1.21935 
        2.34394         5.06986         1.21153 
        2.35007          5.0446         1.20378 
        2.35619          5.0331         1.19611 
        2.36233         5.01444         1.18849 
        2.36848         4.99494         1.18092 
        2.37462         4.98418         1.17343 
        2.38075         4.96624         1.16602 
        2.38689         4.94868         1.15866 
        2.39303         4.92339         1.15137 
        2.39916         4.90855         1.14415 
        2.40529         4.89171         1.13699 
        2.41143          4.8739         1.12988 
        2.41757         4.87199         1.12284 
         2.4237         4.84877         1.11587 
        2.42983         4.82252         1.10895 
        2.43598          4.8109         1.10208 
        2.44211         4.79152         1.09528 
        2.44823         4.77846         1.08855 
        2.45437         4.76084         1.08186 
        2.46052         4.74177         1.07522 
        2.46665         4.72831         1.06864 
        2.47279         4.70712         1.06213 
        2.47892          4.6899         1.05566 
        2.48507         4.68078         1.04924 
         2.4912         4.65802         1.04289 
