# k  (h/Mpc)    Pcb(k)  (Mpc/h)^3    Pcb_linear(k)  (Mpc/h)^3
     0.00783031         443.449         447.663 
       0.013688         542.791         544.441 
       0.019231         544.097         544.352 
      0.0249154         496.432         498.258 
      0.0312784         429.129         429.086 
      0.0375637         367.136         366.253 
      0.0433917         321.443         321.442 
      0.0492413         289.887         289.499 
      0.0555754         264.472         265.123 
      0.0619321         246.018         245.311 
       0.067871         226.252         226.722 
      0.0738098         205.868         206.325 
      0.0800417         182.989         183.632 
      0.0862327         161.829         161.914 
      0.0921407         144.103         143.976 
      0.0982031         129.446         129.528 
       0.104506         119.237         118.727 
       0.110769         111.554         111.215 
       0.116806         105.443         105.577 
       0.122832         100.344         100.195 
       0.129052         93.8375         94.0243 
       0.135211         86.9427         87.1161 
       0.141259         80.1122         79.9677 
       0.147318         73.5006         73.1087 
       0.153489         67.2718         67.0355 
       0.159709         62.4265         62.1602 
       0.165845         59.0982         58.5304 
       0.171974         55.9583         55.7649 
       0.178125         53.6706         53.4224 
       0.184229         51.4713         51.1367 
        0.19034         48.6792         48.6509 
       0.196428         46.1929         45.9389 
       0.202534         43.6234         43.1075 
       0.208729         40.7037         40.3274 
       0.214876         38.1089         37.8482 
       0.220989          36.263         35.7603 
       0.227147         34.2979         34.0367 
        0.23329         32.8724         32.6118 
       0.239377         31.6807         31.3668 
       0.245482         30.3431         30.1675 
       0.251667         29.2896         28.9228 
       0.257832         27.9478         27.6298 
       0.263955         26.6817         26.3237 
       0.270079         25.4271          25.049 
        0.27624         24.3637         23.8559 
       0.282372         23.2997         22.7922 
        0.28843         22.2822         21.8683 
       0.294538         21.4526         21.0465 
       0.300721         20.7996         20.2908 
        0.30691         19.9615         19.5746 
       0.313033         19.2814         18.8773 
       0.319153          18.435         18.1814 
       0.325316         17.9552         17.4838 
        0.33145          17.244          16.807 
       0.337538         16.6098         16.1671 
       0.343633          15.967         15.5705 
       0.349808         15.4604         15.0148 
       0.355968         14.9514         14.5055 
       0.362074         14.4571         14.0365 
       0.368217          14.018         13.5891 
       0.374374         13.5306         13.1566 
       0.380519         13.1583          12.735 
       0.386598         12.7731         12.3268 
       0.392688         12.4104         11.9294 
        0.39888         11.9952         11.5405 
       0.405048         11.6428          11.172 
       0.411186         11.3081         10.8261 
       0.417313         10.9391         10.5004 
       0.423458         10.6519         10.1915 
       0.429607          10.326         9.89728 
       0.435692         10.0361         9.61732 
       0.441815         9.77584         9.34461 
       0.447964         9.55761         9.07921 
       0.454126         9.23729          8.8214 
       0.460267         9.00275          8.5731 
       0.466387         8.73052         8.33529 
        0.47254         8.53149          8.1064 
       0.478662         8.33305         7.88857 
       0.484765         8.09031          7.6806 
       0.490885         7.89135         7.48059 
       0.497035           7.756          7.2872 
       0.503198         7.53703         7.10012 
       0.509342         7.35912         6.91945 
       0.515458          7.1688         6.74528 
       0.521598         7.00771         6.57615 
       0.527764         6.82149         6.41211 
       0.533884         6.69701         6.25499 
           0.54         6.53171         6.10351 
       0.546137          6.3931         5.95687 
       0.552299         6.25308         5.81487 
       0.558452         6.07926         5.67801 
       0.564573         5.97247         5.54632 
       0.570708          5.8415         5.41845 
       0.576825          5.6958         5.29482 
       0.582926          5.5921         5.17525 
       0.589034         5.43461         5.05918 
       0.595184         5.33556         4.94597 
       0.601379          5.2176         4.83557 
       0.607522         5.13279         4.72956 
       0.613639          5.0491         4.62726 
       0.619772         4.91177         4.52781 
       0.625918         4.83662         4.43113 
       0.632068         4.75446         4.33723 
       0.638161         4.64058         4.24689 
         0.6443         4.54553         4.15849 
       0.650464         4.44449         4.07231 
       0.656582         4.38442         3.98921 
       0.662703         4.29975         3.90843 
       0.668861         4.22913         3.82947 
       0.675024         4.13625         3.75266 
       0.681124         4.05232         3.67876 
       0.687237         3.99287         3.60673 
       0.693381         3.92173         3.53631 
       0.699536         3.82038         3.46767 
       0.705665         3.76197         3.40116 
       0.711789         3.70206         3.33647 
       0.717957         3.62975         3.27303 
        0.72409         3.56763         3.21162 
       0.730186         3.50549         3.15216 
       0.736317         3.46775         3.09391 
       0.742472         3.40542         3.03692 
       0.748622         3.33844         2.98144 
        0.75476         3.27073         2.92748 
       0.760888         3.21975         2.87495 
       0.767043         3.18321         2.82351 
       0.773185         3.11532         2.77345 
       0.779291         3.07417          2.7249 
       0.785407         3.02168         2.67745 
       0.791564          2.9762         2.63085 
       0.797719          2.9323         2.58539 
       0.803834         2.89176         2.54129 
       0.809972         2.84595         2.49808 
       0.816124         2.79265         2.45579 
       0.822261         2.74269         2.41459 
       0.828378         2.70828         2.37448 
       0.834502          2.6779         2.33525 
       0.840667         2.61972         2.29666 
       0.846816         2.58048         2.25906 
       0.852925         2.55595         2.22255 
       0.859047         2.51701         2.18677 
       0.865192         2.47877         2.15167 
       0.871341         2.44513         2.11732 
       0.877463          2.4147         2.08389 
       0.883569         2.36997         2.05127 
       0.889708         2.33473         2.01918 
       0.895864         2.30412         1.98771 
       0.902008         2.26677         1.95698 
       0.908149         2.23966         1.92692 
       0.914301         2.19666         1.89745 
       0.920448         2.17063         1.86863 
       0.926574         2.13871         1.84051 
       0.932687         2.11134         1.81304 
       0.938823         2.09062         1.78603 
       0.944975          2.0599         1.75951 
       0.951105         2.03478         1.73363 
       0.957225         2.01621         1.70832 
       0.963368         1.98547         1.68344 
       0.969511         1.95491         1.65905 
       0.975621         1.92471         1.63528 
       0.981748         1.90783         1.61191 
       0.987916         1.88044         1.58886 
        0.99406         1.85092         1.56636 
        1.00019         1.83422         1.54433 
        1.00632         1.80624         1.52275 
        1.01246         1.78461         1.50156 
        1.01859         1.76497          1.4808 
        1.02471         1.73971         1.46047 
        1.03085         1.72289         1.44045 
        1.03698         1.69742         1.42085 
        1.04314         1.67999         1.40154 
        1.04929         1.65664         1.38263 
        1.05541         1.63922         1.36414 
        1.06154          1.6178         1.34596 
        1.06769         1.59945         1.32807 
        1.07382         1.58008         1.31058 
        1.07993         1.55617         1.29344 
        1.08607         1.54711         1.27653 
        1.09222         1.52438         1.25992 
        1.09836         1.51307         1.24362 
        1.10449         1.49456         1.22763 
        1.11063         1.47218          1.2119 
        1.11677         1.45435         1.19646 
         1.1229         1.43938         1.18132 
        1.12903         1.42118         1.16643 
        1.13518         1.40955         1.15178 
        1.14131         1.38957         1.13739 
        1.14745         1.36635         1.12326 
        1.15359         1.35886         1.10937 
        1.15973         1.33778         1.09571 
        1.16584         1.33282         1.08234 
        1.17197         1.31526         1.06918 
        1.17811         1.30236         1.05619 
        1.18424         1.29175         1.04346 
        1.19038         1.27344         1.03091 
        1.19652         1.25812         1.01857 
        1.20267          1.2497         1.00643 
        1.20881          1.2314        0.994488 
        1.21495         1.22292        0.982763 
        1.22108         1.20972        0.971231 
         1.2272         1.20013        0.959911 
        1.23334         1.18412        0.948747 
        1.23949         1.17122        0.937736 
        1.24562         1.16148         0.92693 
        1.25174         1.14918        0.916313 
        1.25789         1.13845         0.90583 
        1.26402         1.12279        0.895531 
        1.27014         1.11218        0.885418 
        1.27628         1.10661        0.875432 
        1.28244         1.08956        0.865582 
        1.28858         1.08062        0.855897 
        1.29471         1.07113        0.846382 
        1.30084         1.05871        0.837022 
        1.30697         1.04924         0.82779 
        1.31312          1.0343        0.818684 
        1.31925         1.02865        0.809744 
        1.32537         1.01936        0.800947 
        1.33151         1.01079         0.79225 
        1.33765        0.999586        0.783687 
        1.34378        0.987337        0.775268 
        1.34992        0.982252        0.766968 
        1.35606        0.969818        0.758772 
         1.3622        0.962796         0.75071 
        1.36833        0.952785        0.742786 
        1.37445        0.941254        0.734981 
        1.38059        0.933616        0.727264 
        1.38675        0.931438         0.71964 
        1.39288        0.918206        0.712156 
        1.39901        0.910132        0.704783 
        1.40515         0.90252        0.697498 
         1.4113        0.893072         0.69032 
        1.41742         0.88519         0.68327 
        1.42355        0.881906        0.676305 
         1.4297        0.869329        0.669418 
        1.43585        0.862578        0.662629 
        1.44198        0.858794        0.655961 
        1.44809        0.846814        0.649398 
        1.45423        0.840334          0.6429 
        1.46036        0.833305        0.636503 
        1.46649         0.82607        0.630192 
        1.47263        0.818192        0.623961 
        1.47877        0.810279        0.617817 
        1.48491        0.803687        0.611747 
        1.49104        0.795982        0.605771 
        1.49718        0.791476        0.599871 
        1.50333        0.783529         0.59404 
        1.50947        0.778136        0.588299 
         1.5156        0.770402        0.582642 
        1.52172        0.764169        0.577061 
        1.52787        0.756968        0.571541 
          1.534        0.752257        0.566101 
        1.54013        0.743563        0.560737 
        1.54627        0.737875        0.555433 
        1.55241         0.73141        0.550198 
        1.55855        0.725364        0.545037 
        1.56467        0.721955        0.539958 
         1.5708        0.713491        0.534929 
        1.57695        0.709884        0.529957 
        1.58308        0.703609        0.525059 
        1.58922        0.697705        0.520221 
        1.59535        0.692121        0.515445 
         1.6015        0.686747        0.510723 
        1.60764        0.682002        0.506063 
        1.61376        0.674532        0.501474 
        1.61989        0.670869        0.496938 
        1.62604        0.664931        0.492448 
        1.63218        0.661289        0.488017 
        1.63831        0.654861        0.483651 
        1.64444        0.649502        0.479336 
        1.65059        0.645158        0.475065 
        1.65673        0.639472        0.470849 
        1.66285        0.634703        0.466697 
        1.66898        0.631502        0.462594 
        1.67512        0.624394        0.458532 
        1.68127        0.619797        0.454516 
         1.6874        0.617154        0.450556 
        1.69353         0.61095        0.446646 
        1.69967        0.606577        0.442774 
        1.70581        0.602357        0.438949 
        1.71193        0.597802        0.435184 
        1.71806         0.59341        0.431455 
        1.72421        0.588928        0.427763 
        1.73035        0.583784        0.424118 
        1.73649        0.581049        0.420517 
        1.74262        0.576591         0.41696 
        1.74876        0.571497        0.413443 
        1.75489         0.56721        0.409973 
        1.76101        0.562838        0.406545 
        1.76715        0.559086        0.403151 
        1.77329        0.555301        0.399792 
        1.77943        0.550796        0.396469 
        1.78557        0.547181         0.39319 
        1.79171        0.543823        0.389947 
        1.79785        0.539585         0.38674 
        1.80399        0.535737         0.38357 
        1.81012        0.532459         0.38044 
        1.81625        0.528246        0.377347 
        1.82239        0.525431        0.374283 
        1.82853        0.519434        0.371255 
        1.83466        0.517166        0.368263 
        1.84078        0.512814        0.365308 
        1.84692        0.510386         0.36238 
        1.85306        0.506875        0.359481 
         1.8592        0.503618        0.356618 
        1.86533        0.500276        0.353788 
        1.87147        0.496552        0.350985 
        1.87761        0.493628        0.348212 
        1.88375        0.488554        0.345472 
        1.88988        0.486608        0.342764 
        1.89601        0.482667        0.340084 
        1.90215        0.480095         0.33743 
        1.90829        0.476179        0.334806 
        1.91442        0.473211         0.33221 
        1.92056         0.47026        0.329644 
         1.9267        0.466617        0.327103 
        1.93284        0.464081        0.324586 
        1.93897        0.461071        0.322101 
        1.94509        0.458205        0.319648 
        1.95123        0.454456        0.317214 
        1.95737        0.452236        0.314803 
        1.96349        0.448674        0.312424 
        1.96964        0.446009        0.310063 
        1.97578        0.442869        0.307725 
        1.98192        0.441241        0.305416 
        1.98805        0.437711        0.303131 
        1.99419        0.434837        0.300869 
        2.00033        0.432763        0.298628 
        2.00647        0.429557        0.296412 
         2.0126        0.426518        0.294222 
        2.01874          0.4243         0.29205 
        2.02488        0.421999        0.289899 
        2.03101        0.418391        0.287773 
        2.03714        0.415557        0.285671 
        2.04328        0.413914        0.283587 
        2.04941        0.411157        0.281526 
        2.05554        0.408358        0.279487 
        2.06167        0.406207        0.277466 
        2.06781        0.402448        0.275464 
        2.07396        0.400046        0.273479 
        2.08009        0.397995        0.271517 
        2.08622        0.395747        0.269576 
        2.09237        0.394423        0.267651 
        2.09851         0.39181        0.265744 
        2.10464        0.389276        0.263859 
        2.11077        0.386616        0.261994 
        2.11691        0.384107        0.260144 
        2.12305        0.381881        0.258311 
        2.12918        0.379704          0.2565 
        2.13531        0.377197        0.254707 
        2.14145         0.37535        0.252926 
         2.1476        0.372949        0.251161 
        2.15372        0.371555        0.249421 
        2.15985        0.368423        0.247696 
        2.16599        0.365901        0.245983 
        2.17213        0.364406        0.244287 
        2.17827        0.362754        0.242608 
         2.1844        0.360788        0.240947 
        2.19054        0.358448          0.2393 
        2.19666         0.35572        0.237671 
         2.2028        0.354352        0.236056 
        2.20893        0.352308        0.234455 
        2.21508         0.34989        0.232868 
        2.22122        0.347387        0.231294 
        2.22736        0.345852        0.229738 
        2.23349        0.344423        0.228197 
        2.23962        0.342534         0.22667 
        2.24577        0.339611        0.225155 
         2.2519        0.338657        0.223656 
        2.25802        0.336175        0.222173 
        2.26417        0.334224        0.220699 
        2.27031        0.332272        0.219238 
        2.27644        0.331028        0.217794 
        2.28257        0.328861        0.216363 
        2.28872        0.327086        0.214942 
        2.29486        0.325088        0.213535 
        2.30099        0.323439        0.212143 
        2.30712        0.322103        0.210762 
        2.31326        0.319742        0.209392 
         2.3194        0.319416        0.208035 
        2.32553        0.317416        0.206692 
        2.33166        0.315567        0.205361 
         2.3378        0.313932         0.20404 
        2.34394        0.311082        0.202731 
        2.35007        0.309924        0.201434 
        2.35619         0.30829        0.200151 
        2.36233        0.306023        0.198876 
        2.36848        0.305164        0.197609 
        2.37462        0.303097        0.196357 
        2.38075        0.302337        0.195116 
        2.38689        0.300118        0.193885 
        2.39303        0.299255        0.192664 
        2.39916        0.296764        0.191456 
        2.40529        0.295479        0.190258 
        2.41143        0.294211        0.189069 
        2.41757        0.292568         0.18789 
         2.4237        0.291123        0.186723 
        2.42983        0.289666        0.185567 
        2.43598         0.28858        0.184417 
        2.44211        0.286968        0.183278 
        2.44823        0.285821        0.182152 
        2.45437        0.283357        0.181032 
        2.46052         0.28282        0.179921 
        2.46665        0.280931        0.178821 
        2.47279        0.279444        0.177731 
        2.47892        0.278021        0.176649 
        2.48507        0.276795        0.175575 
         2.4912        0.275529        0.174512 
