# k  (h/Mpc)    Pcb(k)  (Mpc/h)^3    Pcb_linear(k)  (Mpc/h)^3
     0.00783031         1810.25         1829.19 
       0.013688         2223.62          2224.2 
       0.019231         2224.64         2223.41 
      0.0249154         2021.79         2034.77 
      0.0312784         1750.25         1752.02 
      0.0375637          1499.7         1495.32 
      0.0433917         1309.13          1312.3 
      0.0492413         1182.59         1181.85 
      0.0555754         1075.09         1082.32 
      0.0619321         1006.03         1001.42 
       0.067871         920.839         925.516 
      0.0738098         837.755         842.246 
      0.0800417         743.372           749.6 
      0.0862327         659.007         660.942 
      0.0921407         588.372         587.714 
      0.0982031         527.599         528.735 
       0.104506         488.705         484.643 
       0.110769         456.853         453.978 
       0.116806         430.679          430.96 
       0.122832         410.727         408.992 
       0.129052         382.728         383.802 
       0.135211         355.005         355.602 
       0.141259         328.558         326.422 
       0.147318         302.354         298.424 
       0.153489         276.367         273.633 
       0.159709         257.292         253.732 
       0.165845         244.653         238.915 
       0.171974         230.932         227.627 
       0.178125          221.66         218.065 
       0.184229         212.845         208.735 
        0.19034         200.009         198.588 
       0.196428         191.224         187.518 
       0.202534         181.654          175.96 
       0.208729         169.554         164.612 
       0.214876         158.624         154.492 
       0.220989         151.898         145.969 
       0.227147         143.238         138.934 
        0.23329         137.448         133.118 
       0.239377         133.018         128.036 
       0.245482         126.394          123.14 
       0.251667         122.938         118.059 
       0.257832         117.715         112.782 
       0.263955          112.45          107.45 
       0.270079         107.452         102.247 
        0.27624          103.77         97.3768 
       0.282372          99.407          93.035 
        0.28843         95.1093         89.2636 
       0.294538         91.4939         85.9091 
       0.300721         89.2904         82.8243 
        0.30691         85.4492         79.9008 
       0.313033         82.7215         77.0547 
       0.319153         78.8123         74.2142 
       0.325316         77.2668         71.3666 
        0.33145         74.1541          68.604 
       0.337538         71.9778          65.992 
       0.343633         69.2783         63.5567 
       0.349808         67.1807         61.2884 
       0.355968         65.2103         59.2093 
       0.362074         63.1221         57.2951 
       0.368217         61.2642         55.4688 
       0.374374         59.3386         53.7036 
       0.380519         57.8044         51.9827 
       0.386598         56.1695         50.3162 
       0.392688         54.8584         48.6943 
        0.39888         53.1422         47.1066 
       0.405048         51.7773         45.6024 
       0.411186         50.4802         44.1906 
       0.417313         48.8171          42.861 
       0.423458         47.5696         41.6003 
       0.429607         46.2705         40.3993 
       0.435692         44.8411         39.2565 
       0.441815         44.0416         38.1434 
       0.447964         43.2463           37.06 
       0.454126         41.5285         36.0077 
       0.460267         40.7677         34.9942 
       0.466387         39.5499         34.0234 
        0.47254         38.8987         33.0892 
       0.478662         38.1846            32.2 
       0.484765          37.037         31.3511 
       0.490885         36.1878         30.5347 
       0.497035         35.7027         29.7453 
       0.503198         34.7412         28.9817 
       0.509342          33.851         28.2442 
       0.515458         33.1257         27.5333 
       0.521598         32.5436         26.8429 
       0.527764         31.8259         26.1733 
       0.533884         31.2747          25.532 
           0.54         30.5801         24.9136 
       0.546137          30.067         24.3151 
       0.552299         29.5596         23.7355 
       0.558452          28.643         23.1768 
       0.564573         28.2342         22.6393 
       0.570708         27.7487         22.1173 
       0.576825         27.0547         21.6127 
       0.582926         26.5484         21.1246 
       0.589034         25.8512         20.6509 
       0.595184         25.5086         20.1887 
       0.601379         25.0091         19.7381 
       0.607522          24.572         19.3054 
       0.613639         24.3067         18.8878 
       0.619772         23.6642         18.4819 
       0.625918         23.5237         18.0872 
       0.632068         23.1295         17.7039 
       0.638161         22.6151         17.3352 
         0.6443         22.1595         16.9744 
       0.650464         21.7589         16.6226 
       0.656582         21.6099         16.2834 
       0.662703         21.1956         15.9537 
       0.668861         20.7987         15.6314 
       0.675024         20.4191         15.3178 
       0.681124          20.068         15.0162 
       0.687237         19.7406         14.7221 
       0.693381         19.5409         14.4347 
       0.699536         19.0253         14.1545 
       0.705665         18.9199          13.883 
       0.711789         18.5348          13.619 
       0.717957         18.2652           13.36 
        0.72409         17.9823         13.1093 
       0.730186         17.7355         12.8667 
       0.736317           17.54         12.6289 
       0.742472         17.2427         12.3963 
       0.748622         17.0337         12.1698 
        0.75476         16.7081         11.9495 
       0.760888         16.4862         11.7351 
       0.767043          16.288         11.5251 
       0.773185         15.9787         11.3208 
       0.779291         15.8801         11.1226 
       0.785407         15.6619          10.929 
       0.791564          15.391         10.7387 
       0.797719         15.0749         10.5532 
       0.803834         15.0291         10.3732 
       0.809972         14.8895         10.1968 
       0.816124         14.5478         10.0242 
       0.822261          14.385         9.85602 
       0.828378         14.2213         9.69228 
       0.834502         14.0933         9.53215 
       0.840667         13.8734         9.37463 
       0.846816         13.6289         9.22115 
       0.852925         13.5033         9.07211 
       0.859047         13.3463         8.92608 
       0.865192          13.225          8.7828 
       0.871341         13.1003         8.64261 
       0.877463         12.8718         8.50613 
       0.883569          12.693         8.37297 
       0.889708         12.4934         8.24201 
       0.895864         12.4008         8.11353 
       0.902008         12.2949         7.98809 
       0.908149         12.1569          7.8654 
       0.914301         12.0343          7.7451 
       0.920448          11.824         7.62746 
       0.926574         11.7049         7.51269 
       0.932687         11.5861         7.40054 
       0.938823         11.4305          7.2903 
       0.944975         11.2902         7.18207 
       0.951105         11.1909         7.07644 
       0.957225         11.1113         6.97312 
       0.963368         10.9808         6.87154 
       0.969511         10.8718         6.77199 
       0.975621         10.7525         6.67496 
       0.981748         10.6253          6.5796 
       0.987916         10.5451         6.48551 
        0.99406          10.386         6.39363 
        1.00019         10.2325         6.30373 
        1.00632         10.2143         6.21565 
        1.01246         10.0959         6.12914 
        1.01859         9.94354         6.04442 
        1.02471         9.88455         5.96142 
        1.03085         9.78313         5.87971 
        1.03698         9.64061         5.79971 
        1.04314          9.5833         5.72087 
        1.04929         9.45873         5.64368 
        1.05541         9.35148         5.56824 
        1.06154         9.28462         5.49399 
        1.06769         9.23989           5.421 
        1.07382         9.09809         5.34958 
        1.07993          9.0224         5.27961 
        1.08607         8.94932         5.21062 
        1.09222         8.86876         5.14279 
        1.09836         8.76671         5.07626 
        1.10449         8.69182           5.011 
        1.11063         8.60546         4.94682 
        1.11677         8.55742         4.88379 
         1.1229         8.49097         4.82197 
        1.12903         8.38665         4.76118 
        1.13518         8.28851         4.70139 
        1.14131         8.22187         4.64267 
        1.14745         8.14312         4.58499 
        1.15359         8.09233         4.52829 
        1.15973         8.01698         4.47253 
        1.16584         7.90422         4.41796 
        1.17197         7.85343         4.36423 
        1.17811          7.8172         4.31123 
        1.18424         7.74354         4.25927 
        1.19038         7.70588         4.20802 
        1.19652         7.61634         4.15764 
        1.20267          7.5352         4.10808 
        1.20881         7.51261         4.05935 
        1.21495         7.44394         4.01149 
        1.22108         7.35577         3.96442 
         1.2272         7.31157         3.91822 
        1.23334         7.22787         3.87265 
        1.23949         7.16719          3.8277 
        1.24562         7.13431         3.78359 
        1.25174         7.07109         3.74025 
        1.25789         7.01924         3.69746 
        1.26402         6.97896         3.65542 
        1.27014         6.91535         3.61414 
        1.27628          6.8382         3.57338 
        1.28244         6.77164         3.53318 
        1.28858         6.76539         3.49364 
        1.29471         6.68631         3.45481 
        1.30084         6.62169          3.4166 
        1.30697         6.62112         3.37891 
        1.31312         6.50766         3.34175 
        1.31925         6.47049         3.30525 
        1.32537         6.42544         3.26935 
        1.33151         6.40146         3.23384 
        1.33765         6.32732         3.19889 
        1.34378         6.28306         3.16453 
        1.34992         6.24563         3.13065 
        1.35606         6.18785         3.09719 
         1.3622         6.15675         3.06429 
        1.36833         6.10448         3.03194 
        1.37445         6.06436         3.00008 
        1.38059         6.04396         2.96858 
        1.38675         5.99051         2.93746 
        1.39288         5.95395         2.90692 
        1.39901          5.8843         2.87682 
        1.40515         5.85617         2.84708 
         1.4113         5.81764         2.81778 
        1.41742         5.77742           2.789 
        1.42355         5.72391         2.76058 
         1.4297         5.69034         2.73246 
        1.43585          5.6665         2.70475 
        1.44198         5.64007         2.67754 
        1.44809         5.58375         2.65074 
        1.45423         5.54041         2.62422 
        1.46036         5.49945         2.59811 
        1.46649         5.46681         2.57235 
        1.47263         5.42066         2.54692 
        1.47877         5.38636         2.52184 
        1.48491         5.35562         2.49706 
        1.49104          5.3217         2.47267 
        1.49718         5.29067         2.44858 
        1.50333         5.26025         2.42478 
        1.50947         5.21673         2.40135 
         1.5156         5.18704         2.37826 
        1.52172           5.158         2.35548 
        1.52787         5.12719         2.33295 
          1.534         5.08356         2.31074 
        1.54013         5.06426         2.28884 
        1.54627         5.01617          2.2672 
        1.55241         4.98769         2.24583 
        1.55855         4.96842         2.22476 
        1.56467         4.93132         2.20403 
         1.5708         4.90692          2.1835 
        1.57695         4.86214          2.1632 
        1.58308         4.82836         2.14321 
        1.58922           4.818         2.12346 
        1.59535         4.79069         2.10397 
         1.6015         4.75006          2.0847 
        1.60764         4.71858         2.06567 
        1.61376         4.69771         2.04694 
        1.61989         4.67101         2.02843 
        1.62604         4.63582          2.0101 
        1.63218         4.62584         1.99201 
        1.63831         4.59231         1.97419 
        1.64444         4.56723         1.95658 
        1.65059         4.51824         1.93914 
        1.65673         4.51726         1.92194 
        1.66285         4.47182         1.90499 
        1.66898          4.4517         1.88824 
        1.67512         4.42586         1.87166 
        1.68127         4.39984         1.85526 
         1.6874          4.3855          1.8391 
        1.69353         4.34502         1.82314 
        1.69967         4.32896         1.80734 
        1.70581         4.30651         1.79172 
        1.71193         4.27979         1.77636 
        1.71806         4.26193         1.76114 
        1.72421         4.23261         1.74606 
        1.73035         4.21797         1.73119 
        1.73649         4.19001         1.71649 
        1.74262         4.16181         1.70197 
        1.74876         4.14854         1.68761 
        1.75489         4.12705         1.67345 
        1.76101         4.09199         1.65945 
        1.76715         4.08143          1.6456 
        1.77329         4.06113         1.63189 
        1.77943         4.02121         1.61833 
        1.78557         4.01444         1.60494 
        1.79171         3.98995         1.59171 
        1.79785         3.96808         1.57862 
        1.80399         3.94418         1.56568 
        1.81012         3.92737          1.5529 
        1.81625         3.90657         1.54027 
        1.82239         3.88733         1.52777 
        1.82853         3.86276         1.51541 
        1.83466         3.85183          1.5032 
        1.84078         3.83252         1.49113 
        1.84692         3.81932         1.47918 
        1.85306         3.78515         1.46735 
         1.8592         3.76312         1.45566 
        1.86533         3.74806         1.44411 
        1.87147         3.73496         1.43267 
        1.87761         3.71084         1.42135 
        1.88375         3.69297         1.41016 
        1.88988          3.6722         1.39911 
        1.89601          3.6562         1.38817 
        1.90215         3.63959         1.37734 
        1.90829         3.61552         1.36663 
        1.91442         3.60388         1.35603 
        1.92056         3.58178         1.34556 
         1.9267         3.56449         1.33518 
        1.93284         3.55095         1.32491 
        1.93897         3.53294         1.31477 
        1.94509         3.51306         1.30475 
        1.95123         3.49481         1.29482 
        1.95737         3.47304         1.28498 
        1.96349         3.46533         1.27527 
        1.96964         3.45343         1.26563 
        1.97578         3.42499         1.25609 
        1.98192         3.41683         1.24666 
        1.98805         3.40206         1.23733 
        1.99419         3.38418          1.2281 
        2.00033         3.37292         1.21896 
        2.00647         3.35258         1.20991 
         2.0126          3.3422         1.20097 
        2.01874         3.31516         1.19211 
        2.02488         3.30905         1.18332 
        2.03101         3.28289         1.17465 
        2.03714         3.27302         1.16607 
        2.04328         3.25741         1.15756 
        2.04941          3.2356         1.14915 
        2.05554         3.22764         1.14082 
        2.06167         3.21764         1.13257 
        2.06781         3.20027          1.1244 
        2.07396         3.19021          1.1163 
        2.08009         3.17338         1.10829 
        2.08622         3.15478         1.10037 
        2.09237         3.14303         1.09251 
        2.09851         3.13083         1.08473 
        2.10464         3.11913         1.07703 
        2.11077         3.10038         1.06942 
        2.11691         3.08844         1.06187 
        2.12305         3.07812         1.05439 
        2.12918         3.06924           1.047 
        2.13531         3.05317         1.03968 
        2.14145         3.03924         1.03241 
         2.1476         3.02053          1.0252 
        2.15372         3.00841          1.0181 
        2.15985         3.00199         1.01106 
        2.16599          2.9846         1.00407 
        2.17213         2.96831        0.997145 
        2.17827         2.96145        0.990292 
         2.1844         2.94639        0.983509 
        2.19054         2.93744        0.976788 
        2.19666         2.92073        0.970139 
         2.2028         2.90739        0.963546 
        2.20893           2.898        0.957012 
        2.21508         2.88223         0.95053 
        2.22122         2.87121        0.944107 
        2.22736         2.86035        0.937757 
        2.23349         2.85204        0.931467 
        2.23962         2.83688        0.925232 
        2.24577         2.82678        0.919048 
         2.2519         2.81662        0.912929 
        2.25802         2.80501        0.906877 
        2.26417         2.79589        0.900862 
        2.27031         2.77993        0.894896 
        2.27644         2.76982        0.889002 
        2.28257         2.75529        0.883161 
        2.28872         2.75104        0.877362 
        2.29486         2.73482        0.871617 
        2.30099         2.72306        0.865934 
        2.30712         2.71138          0.8603 
        2.31326         2.70117        0.854706 
         2.3194         2.69263        0.849166 
        2.32553         2.68143        0.843684 
        2.33166         2.67376        0.838252 
         2.3378         2.66196        0.832861 
        2.34394         2.65129        0.827516 
        2.35007         2.63921        0.822225 
        2.35619         2.63249        0.816987 
        2.36233         2.62252        0.811782 
        2.36848         2.60778        0.806612 
        2.37462         2.60327        0.801498 
        2.38075         2.58973        0.796433 
        2.38689         2.58359        0.791408 
        2.39303         2.57143        0.786427 
        2.39916          2.5616        0.781493 
        2.40529         2.55201        0.776603 
        2.41143         2.54157        0.771751 
        2.41757         2.53188        0.766939 
         2.4237         2.52547        0.762176 
        2.42983         2.50454        0.757455 
        2.43598          2.5068        0.752761 
        2.44211          2.4905        0.748115 
        2.44823         2.48652        0.743518 
        2.45437         2.47322        0.738947 
        2.46052         2.46867        0.734412 
        2.46665         2.45879        0.729922 
        2.47279         2.44816        0.725471 
        2.47892          2.4409        0.721055 
        2.48507         2.43151        0.716671 
         2.4912         2.41628        0.712333 
