# k  (h/Mpc)    Pcb(k)  (Mpc/h)^3    Pcb_linear(k)  (Mpc/h)^3
     0.00783031         219.146         221.172 
       0.013688         267.973         269.002 
       0.019231         268.751         268.967 
      0.0249154         245.467         246.199 
      0.0312784         212.092         212.026 
      0.0375637         181.374         180.983 
      0.0433917         158.932         158.842 
      0.0492413          143.26         143.059 
      0.0555754         130.832         131.015 
      0.0619321         121.485         121.226 
       0.067871         111.877          112.04 
      0.0738098         101.804         101.961 
      0.0800417         90.5376         90.7465 
      0.0862327         80.0086         80.0143 
      0.0921407         71.2099         71.1499 
      0.0982031         64.0017         64.0101 
       0.104506         58.8599         58.6725 
       0.110769          55.079         54.9604 
       0.116806         52.1145         52.1739 
       0.122832         49.5534         49.5145 
       0.129052         46.3865          46.465 
       0.135211         42.9741         43.0512 
       0.141259         39.5534         39.5186 
       0.147318         36.2561          36.129 
       0.153489         33.1995         33.1278 
       0.159709         30.7929         30.7185 
       0.165845         29.1069         28.9247 
       0.171974         27.5994          27.558 
       0.178125           26.46         26.4004 
       0.184229         25.3632         25.2709 
        0.19034         24.0307         24.0424 
       0.196428         22.7623         22.7022 
       0.202534         21.4574          21.303 
       0.208729         20.0295         19.9291 
       0.214876         18.7626          18.704 
       0.220989          17.818         17.6721 
       0.227147         16.8776         16.8204 
        0.23329         16.1718         16.1162 
       0.239377         15.5702          15.501 
       0.245482         14.9382         14.9083 
       0.251667         14.3877         14.2932 
       0.257832          13.725         13.6542 
       0.263955         13.0971         13.0087 
       0.270079         12.4742         12.3788 
        0.27624         11.9276         11.7892 
       0.282372         11.4008         11.2636 
        0.28843         10.9083          10.807 
       0.294538         10.5022         10.4009 
       0.300721         10.1644         10.0274 
        0.30691          9.7664         9.67344 
       0.313033         9.42893         9.32886 
       0.319153          9.0317         8.98497 
       0.325316         8.76629         8.64022 
        0.33145         8.42098         8.30577 
       0.337538         8.10156         7.98953 
       0.343633         7.78996          7.6947 
       0.349808         7.53385         7.42008 
       0.355968         7.28286         7.16837 
       0.362074         7.04098         6.93662 
       0.368217          6.8228         6.71551 
       0.374374         6.58695          6.5018 
       0.380519          6.3982         6.29346 
       0.386598         6.20611          6.0917 
       0.392688         6.02177         5.89534 
        0.39888         5.81921         5.70312 
       0.405048         5.64082         5.52101 
       0.411186         5.47384         5.35009 
       0.417313         5.29899         5.18911 
       0.423458         5.15683         5.03648 
       0.429607         4.99712         4.89108 
       0.435692         4.85734         4.75273 
       0.441815         4.72551         4.61796 
       0.447964         4.61156          4.4868 
       0.454126         4.46364          4.3594 
       0.460267         4.34251         4.23669 
       0.466387         4.21565         4.11917 
        0.47254         4.10999         4.00606 
       0.478662         4.00829         3.89841 
       0.484765         3.89483         3.79563 
       0.490885         3.79819         3.69679 
       0.497035         3.72315         3.60122 
       0.503198         3.61834         3.50877 
       0.509342         3.53303         3.41948 
       0.515458         3.44004         3.33341 
       0.521598         3.35813         3.24983 
       0.527764         3.26752         3.16876 
       0.533884         3.20411         3.09112 
           0.54         3.12384         3.01626 
       0.546137         3.05453         2.94379 
       0.552299          2.9833         2.87362 
       0.558452         2.90546         2.80598 
       0.564573         2.84766          2.7409 
       0.570708          2.7833         2.67771 
       0.576825         2.71594         2.61662 
       0.582926         2.66398         2.55753 
       0.589034         2.59066         2.50017 
       0.595184         2.53931         2.44422 
       0.601379         2.48368         2.38966 
       0.607522         2.43836         2.33727 
       0.613639         2.39484         2.28672 
       0.619772         2.33205         2.23758 
       0.625918         2.28961          2.1898 
       0.632068          2.2482         2.14339 
       0.638161         2.19643         2.09875 
         0.6443         2.15145         2.05506 
       0.650464         2.10281         2.01247 
       0.656582         2.06827          1.9714 
       0.662703         2.02786         1.93149 
       0.668861         1.99428         1.89247 
       0.675024         1.95017         1.85451 
       0.681124         1.90819         1.81799 
       0.687237         1.87874         1.78239 
       0.693381         1.84404         1.74759 
       0.699536         1.79858         1.71367 
       0.705665         1.76801          1.6808 
       0.711789         1.73933         1.64883 
       0.717957         1.70386         1.61748 
        0.72409         1.67438         1.58713 
       0.730186          1.6428         1.55775 
       0.736317         1.62232         1.52896 
       0.742472         1.59158          1.5008 
       0.748622         1.56035         1.47338 
        0.75476         1.52972         1.44671 
       0.760888         1.50296         1.42075 
       0.767043         1.48573         1.39533 
       0.773185         1.45415          1.3706 
       0.779291         1.43112          1.3466 
       0.785407         1.40721         1.32316 
       0.791564         1.38492         1.30012 
       0.797719         1.36416         1.27766 
       0.803834         1.34257         1.25587 
       0.809972         1.31919         1.23451 
       0.816124         1.29567         1.21361 
       0.822261         1.27261         1.19326 
       0.828378         1.25536         1.17343 
       0.834502         1.23863         1.15404 
       0.840667         1.21275         1.13497 
       0.846816          1.1945         1.11639 
       0.852925         1.18122         1.09835 
       0.859047         1.16237         1.08067 
       0.865192         1.14219         1.06332 
       0.871341         1.12534         1.04635 
       0.877463         1.11186         1.02983 
       0.883569         1.09164          1.0137 
       0.889708         1.07509        0.997849 
       0.895864         1.05944        0.982295 
       0.902008         1.04197        0.967108 
       0.908149         1.02768        0.952253 
       0.914301         1.00801        0.937689 
       0.920448        0.995702        0.923446 
       0.926574        0.980701        0.909551 
       0.932687        0.966489        0.895974 
       0.938823        0.956998        0.882627 
       0.944975        0.942109        0.869523 
       0.951105        0.929774        0.856735 
       0.957225        0.919072        0.844227 
       0.963368        0.904996        0.831928 
       0.969511        0.890762        0.819875 
       0.975621        0.876903        0.808128 
       0.981748        0.868904        0.796583 
       0.987916        0.855715        0.785192 
        0.99406         0.84277        0.774069 
        1.00019        0.834336        0.763184 
        1.00632         0.81977        0.752521 
        1.01246        0.809239        0.742047 
        1.01859        0.800258         0.73179 
        1.02471        0.788615        0.721742 
        1.03085        0.781212        0.711849 
        1.03698        0.768782        0.702163 
        1.04314        0.759929        0.692618 
        1.04929        0.748676        0.683273 
        1.05541        0.740989        0.674139 
        1.06154        0.730115         0.66515 
        1.06769        0.720344        0.656313 
        1.07382        0.712257        0.647666 
        1.07993        0.701491        0.639196 
        1.08607        0.696384        0.630843 
        1.09222        0.685553        0.622631 
        1.09836        0.680005        0.614577 
        1.10449        0.671172        0.606675 
        1.11063        0.660886        0.598904 
        1.11677        0.651849        0.591274 
         1.1229        0.645434         0.58379 
        1.12903         0.63681         0.57643 
        1.13518        0.630862        0.569192 
        1.14131        0.622202        0.562082 
        1.14745        0.611765        0.555099 
        1.15359        0.607319        0.548234 
        1.15973        0.598184        0.541483 
        1.16584        0.594616        0.534877 
        1.17197        0.586721        0.528371 
        1.17811        0.580641        0.521955 
        1.18424         0.57542        0.515664 
        1.19038        0.567047        0.509459 
        1.19652        0.559197         0.50336 
        1.20267        0.555383         0.49736 
        1.20881        0.547654        0.491461 
        1.21495        0.543186        0.485666 
        1.22108        0.536675        0.479967 
         1.2272        0.531525        0.474373 
        1.23334        0.524834        0.468856 
        1.23949        0.519102        0.463414 
        1.24562        0.513695        0.458075 
        1.25174        0.508515        0.452828 
        1.25789        0.503557        0.447647 
        1.26402        0.496364        0.442557 
        1.27014        0.491599         0.43756 
        1.27628         0.48783        0.432625 
        1.28244        0.480299        0.427757 
        1.28858        0.476218        0.422971 
        1.29471        0.472475        0.418269 
        1.30084        0.466368        0.413643 
        1.30697        0.461496        0.409081 
        1.31312        0.455062        0.404581 
        1.31925        0.451486        0.400163 
        1.32537        0.447664        0.395816 
        1.33151        0.443821        0.391517 
        1.33765        0.438909        0.387286 
        1.34378        0.433129        0.383126 
        1.34992        0.429833        0.379024 
        1.35606        0.425103        0.374973 
         1.3622        0.420943        0.370989 
        1.36833        0.416654        0.367073 
        1.37445        0.411363        0.363216 
        1.38059        0.407748        0.359403 
        1.38675        0.406099        0.355635 
        1.39288        0.400796        0.351937 
        1.39901         0.39715        0.348293 
        1.40515        0.393576        0.344693 
         1.4113        0.388856        0.341145 
        1.41742        0.385286        0.337661 
        1.42355        0.383017         0.33422 
         1.4297        0.377939        0.330816 
        1.43585        0.374729        0.327461 
        1.44198        0.372507        0.324166 
        1.44809        0.367822        0.320922 
        1.45423        0.364474        0.317711 
        1.46036        0.361082         0.31455 
        1.46649         0.35834        0.311431 
        1.47263         0.35448        0.308352 
        1.47877        0.350533        0.305316 
        1.48491        0.347907        0.302316 
        1.49104        0.343929        0.299363 
        1.49718        0.341226        0.296447 
        1.50333        0.338825        0.293565 
        1.50947        0.335499        0.290728 
         1.5156        0.331996        0.287933 
        1.52172        0.329468        0.285174 
        1.52787        0.326251        0.282447 
          1.534        0.323426        0.279758 
        1.54013        0.320136        0.277108 
        1.54627        0.318004        0.274487 
        1.55241        0.314617        0.271899 
        1.55855        0.311464        0.269349 
        1.56467        0.310394        0.266839 
         1.5708        0.306714        0.264354 
        1.57695        0.304242        0.261896 
        1.58308        0.301426        0.259476 
        1.58922        0.299129        0.257085 
        1.59535        0.296298        0.254725 
         1.6015        0.293709        0.252391 
        1.60764        0.291586        0.250088 
        1.61376        0.288231        0.247821 
        1.61989        0.286395        0.245579 
        1.62604        0.284083         0.24336 
        1.63218        0.281998        0.241171 
        1.63831        0.279678        0.239013 
        1.64444        0.277175        0.236881 
        1.65059        0.274905         0.23477 
        1.65673        0.272605        0.232687 
        1.66285        0.270735        0.230635 
        1.66898        0.268596        0.228607 
        1.67512        0.265755          0.2266 
        1.68127        0.263449        0.224615 
         1.6874        0.262169        0.222658 
        1.69353        0.259413        0.220726 
        1.69967        0.257881        0.218812 
        1.70581        0.255243        0.216922 
        1.71193        0.253453        0.215061 
        1.71806        0.251088        0.213218 
        1.72421        0.249712        0.211394 
        1.73035        0.247209        0.209593 
        1.73649        0.245757        0.207813 
        1.74262        0.243671        0.206055 
        1.74876        0.241593        0.204317 
        1.75489        0.240023        0.202602 
        1.76101        0.237747        0.200908 
        1.76715        0.235966        0.199231 
        1.77329        0.233949        0.197571 
        1.77943        0.232234        0.195929 
        1.78557        0.230918        0.194308 
        1.79171        0.229128        0.192706 
        1.79785        0.227206        0.191121 
        1.80399        0.225474        0.189555 
        1.81012         0.22395        0.188008 
        1.81625        0.222176        0.186479 
        1.82239         0.22069        0.184965 
        1.82853        0.218522        0.183468 
        1.83466        0.217188         0.18199 
        1.84078        0.215466        0.180529 
        1.84692         0.21386        0.179083 
        1.85306        0.212677         0.17765 
         1.8592        0.210744        0.176235 
        1.86533        0.209619        0.174836 
        1.87147        0.207927        0.173451 
        1.87761        0.206652        0.172081 
        1.88375        0.204687        0.170727 
        1.88988        0.203398        0.169389 
        1.89601        0.201688        0.168064 
        1.90215        0.200563        0.166753 
        1.90829         0.19881        0.165456 
        1.91442        0.197879        0.164173 
        1.92056         0.19611        0.162905 
         1.9267        0.194618        0.161649 
        1.93284        0.193266        0.160406 
        1.93897        0.191894        0.159177 
        1.94509        0.190943        0.157965 
        1.95123        0.189293        0.156762 
        1.95737        0.188323        0.155571 
        1.96349        0.186765        0.154395 
        1.96964        0.185349        0.153228 
        1.97578        0.184036        0.152073 
        1.98192         0.18304        0.150932 
        1.98805        0.182036        0.149802 
        1.99419         0.18032        0.148685 
        2.00033        0.179061        0.147578 
        2.00647        0.178405        0.146482 
         2.0126        0.176704          0.1454 
        2.01874        0.175793        0.144327 
        2.02488        0.174535        0.143264 
        2.03101        0.173328        0.142213 
        2.03714        0.172081        0.141174 
        2.04328        0.171192        0.140144 
        2.04941        0.169808        0.139126 
        2.05554        0.168903        0.138118 
        2.06167        0.167951        0.137119 
        2.06781        0.166416         0.13613 
        2.07396        0.165373        0.135149 
        2.08009        0.164315        0.134179 
        2.08622        0.163462         0.13322 
        2.09237        0.162482        0.132269 
        2.09851        0.161445        0.131327 
        2.10464        0.160342        0.130395 
        2.11077        0.159149        0.129474 
        2.11691        0.158213        0.128559 
        2.12305        0.157213        0.127653 
        2.12918         0.15632        0.126758 
        2.13531        0.155107        0.125872 
        2.14145         0.15406        0.124992 
         2.1476         0.15327         0.12412 
        2.15372        0.152537         0.12326 
        2.15985        0.151275        0.122408 
        2.16599        0.150224        0.121561 
        2.17213        0.149514        0.120723 
        2.17827         0.14843        0.119893 
         2.1844         0.14774        0.119072 
        2.19054        0.146726        0.118258 
        2.19666        0.145464        0.117453 
         2.2028        0.144965        0.116655 
        2.20893        0.144258        0.115864 
        2.21508        0.142946         0.11508 
        2.22122        0.142085        0.114302 
        2.22736        0.141569        0.113533 
        2.23349        0.140476        0.112772 
        2.23962        0.139822        0.112017 
        2.24577        0.138763        0.111268 
         2.2519        0.138161        0.110527 
        2.25802        0.137106        0.109794 
        2.26417        0.136451        0.109066 
        2.27031        0.135545        0.108344 
        2.27644        0.134783         0.10763 
        2.28257        0.133987        0.106923 
        2.28872        0.133197        0.106221 
        2.29486        0.132539        0.105526 
        2.30099        0.131605        0.104838 
        2.30712        0.130919        0.104155 
        2.31326        0.129846        0.103478 
         2.3194        0.129768        0.102807 
        2.32553        0.128853        0.102144 
        2.33166        0.128196        0.101486 
         2.3378        0.127321        0.100833 
        2.34394        0.126463        0.100186 
        2.35007        0.125777       0.0995458 
        2.35619        0.124918       0.0989116 
        2.36233         0.12426       0.0982815 
        2.36848        0.123773       0.0976555 
        2.37462        0.122786       0.0970364 
        2.38075        0.122436       0.0964231 
        2.38689        0.121606       0.0958147 
        2.39303        0.121196       0.0952117 
        2.39916        0.120102       0.0946144 
        2.40529        0.119639       0.0940224 
        2.41143        0.118933        0.093435 
        2.41757        0.118219       0.0928523 
         2.4237         0.11778       0.0922757 
        2.42983        0.116934       0.0917041 
        2.43598        0.116587       0.0911358 
        2.44211        0.115729       0.0905733 
        2.44823        0.115375       0.0900168 
        2.45437        0.114356       0.0894634 
        2.46052        0.113955       0.0889143 
        2.46665        0.113219       0.0883707 
        2.47279        0.112575       0.0878319 
        2.47892        0.111883       0.0872972 
        2.48507        0.111252       0.0867665 
         2.4912        0.110833       0.0862412 
