# k  (h/Mpc)    Pcb(k)  (Mpc/h)^3    Pcb_linear(k)  (Mpc/h)^3
     0.00783031         742.742             750 
       0.013688         910.063         912.093 
       0.019231         911.767         911.903 
      0.0249154         830.976         834.648 
      0.0312784         718.633         718.744 
      0.0375637          615.08         613.476 
      0.0433917         538.074         538.406 
      0.0492413         485.482         484.897 
      0.0555754         442.481         444.066 
      0.0619321         412.318          410.88 
       0.067871         378.682         379.743 
      0.0738098         344.542         345.579 
      0.0800417         306.097         307.568 
      0.0862327         270.885         271.192 
      0.0921407         241.369         241.147 
      0.0982031           216.7         216.948 
       0.104506         199.925         198.857 
       0.110769         187.001         186.275 
       0.116806           176.6         176.831 
       0.122832         168.183         167.817 
       0.129052         157.119         157.481 
       0.135211         145.601         145.911 
       0.141259          134.32         133.938 
       0.147318         123.342          122.45 
       0.153489          112.84         112.278 
       0.159709         104.786         104.112 
       0.165845         99.3365         98.0323 
       0.171974         93.9465         93.4003 
       0.178125         90.1354         89.4769 
       0.184229         86.4787         85.6486 
        0.19034          81.636         81.4852 
       0.196428         77.6184         76.9428 
       0.202534         73.4313         72.2005 
       0.208729          68.503          67.544 
       0.214876         64.1067         63.3917 
       0.220989         61.1222         59.8946 
       0.227147         57.7373         57.0078 
        0.23329         55.3546         54.6214 
       0.239377         53.4038         52.5361 
       0.245482         51.0487         50.5273 
       0.251667         49.3821         48.4426 
       0.257832         47.1531          46.277 
       0.263955         45.0249         44.0893 
       0.270079         42.9387         41.9545 
        0.27624         41.2314         39.9561 
       0.282372         39.4501         38.1745 
        0.28843         37.7196         36.6271 
       0.294538         36.3112         35.2506 
       0.300721         35.2673         33.9849 
        0.30691         33.8146         32.7853 
       0.313033         32.6782         31.6174 
       0.319153         31.1951         30.4519 
       0.325316         30.4687         29.2835 
        0.33145         29.2515           28.15 
       0.337538         28.2239         27.0782 
       0.343633         27.1345         26.0789 
       0.349808         26.2942         25.1482 
       0.355968         25.4462         24.2951 
       0.362074         24.6112         23.5096 
       0.368217         23.8717         22.7603 
       0.374374         23.0537         22.0359 
       0.380519         22.4355         21.3298 
       0.386598         21.7886          20.646 
       0.392688          21.202         19.9805 
        0.39888         20.4997          19.329 
       0.405048          19.923         18.7118 
       0.411186         19.3703         18.1325 
       0.417313         18.7268          17.587 
       0.423458         18.2385         17.0697 
       0.429607          17.695         16.5769 
       0.435692         17.1901          16.108 
       0.441815         16.7735         15.6512 
       0.447964         16.4265         15.2067 
       0.454126         15.8481         14.7749 
       0.460267         15.4768          14.359 
       0.466387         14.9963         13.9607 
        0.47254          14.689         13.5773 
       0.478662         14.3693         13.2125 
       0.484765          13.941         12.8642 
       0.490885         13.6024         12.5292 
       0.497035         13.3935         12.2053 
       0.503198         13.0199         11.8919 
       0.509342         12.7061         11.5893 
       0.515458         12.3873         11.2976 
       0.521598         12.1269         11.0143 
       0.527764         11.8152         10.7396 
       0.533884         11.6057         10.4764 
           0.54         11.3277         10.2227 
       0.546137         11.0989         9.97711 
       0.552299         10.8726         9.73927 
       0.558452         10.5535         9.51004 
       0.564573         10.3889         9.28947 
       0.570708         10.1703         9.07531 
       0.576825         9.90941         8.86825 
       0.582926         9.73302         8.66798 
       0.589034         9.45843         8.47358 
       0.595184         9.30146         8.28396 
       0.601379         9.09584         8.09905 
       0.607522         8.95667         7.92149 
       0.613639         8.82321         7.75016 
       0.619772         8.58134         7.58359 
       0.625918         8.47784         7.42166 
       0.632068         8.33701         7.26438 
       0.638161         8.13283         7.11308 
         0.6443         7.96566         6.96502 
       0.650464         7.79593         6.82067 
       0.656582         7.71121         6.68149 
       0.662703         7.56359          6.5462 
       0.668861         7.43313         6.41395 
       0.675024         7.27508          6.2853 
       0.681124         7.13832         6.16152 
       0.687237         7.03252         6.04088 
       0.693381          6.9185         5.92293 
       0.699536         6.73363         5.80796 
       0.705665         6.64456         5.69656 
       0.711789         6.53669         5.58822 
       0.717957         6.41683         5.48197 
        0.72409          6.3063         5.37911 
       0.730186         6.20904         5.27953 
       0.736317         6.14362         5.18195 
       0.742472         6.03928         5.08651 
       0.748622         5.92651         4.99359 
        0.75476         5.80299          4.9032 
       0.760888         5.72404         4.81522 
       0.767043         5.65556         4.72907 
       0.773185         5.53597         4.64522 
       0.779291          5.4773         4.56391 
       0.785407         5.38409         4.48444 
       0.791564         5.30329         4.40638 
       0.797719         5.21932         4.33024 
       0.803834         5.16251         4.25639 
       0.809972         5.09223         4.18401 
       0.816124          4.9908         4.11317 
       0.822261         4.90453         4.04418 
       0.828378         4.84509         3.97699 
       0.834502         4.79848         3.91129 
       0.840667         4.69722         3.84666 
       0.846816           4.624         3.78368 
       0.852925         4.58326         3.72252 
       0.859047          4.5168          3.6626 
       0.865192          4.4616         3.60381 
       0.871341         4.40626         3.54629 
       0.877463         4.34388         3.49029 
       0.883569         4.26575         3.43565 
       0.889708         4.20048         3.38191 
       0.895864         4.15326         3.32919 
       0.902008         4.09301         3.27772 
       0.908149         4.04836         3.22738 
       0.914301         3.97502         3.17802 
       0.920448         3.92536         3.12974 
       0.926574         3.86949         3.08265 
       0.932687         3.82822         3.03664 
       0.938823         3.78416          2.9914 
       0.944975           3.732         2.94699 
       0.951105         3.69055         2.90365 
       0.957225         3.66609         2.86125 
       0.963368         3.60982         2.81957 
       0.969511         3.55792         2.77872 
       0.975621         3.50589         2.73891 
       0.981748         3.47346         2.69978 
       0.987916         3.42916         2.66117 
        0.99406         3.37229         2.62347 
        1.00019         3.33774         2.58658 
        1.00632          3.3021         2.55044 
        1.01246         3.26396         2.51495 
        1.01859         3.22527         2.48018 
        1.02471         3.18399         2.44613 
        1.03085         3.14935          2.4126 
        1.03698         3.10665         2.37977 
        1.04314         3.07841         2.34742 
        1.04929         3.03816         2.31575 
        1.05541          3.0039         2.28479 
        1.06154         2.97185         2.25433 
        1.06769         2.94638         2.22438 
        1.07382          2.9037         2.19507 
        1.07993          2.8641         2.16636 
        1.08607         2.84893         2.13805 
        1.09222         2.81096         2.11022 
        1.09836          2.7884         2.08292 
        1.10449         2.75568         2.05614 
        1.11063         2.71955         2.02981 
        1.11677         2.69237         2.00394 
         1.1229         2.66344         1.97858 
        1.12903         2.63109         1.95364 
        1.13518         2.60974          1.9291 
        1.14131         2.57229         1.90501 
        1.14745         2.53406         1.88134 
        1.15359         2.52171         1.85808 
        1.15973         2.48508         1.83519 
        1.16584         2.47278          1.8128 
        1.17197         2.44427         1.79076 
        1.17811         2.42221         1.76901 
        1.18424         2.40232         1.74769 
        1.19038         2.37438         1.72666 
        1.19652         2.34933         1.70599 
        1.20267         2.32976         1.68565 
        1.20881         2.30072         1.66566 
        1.21495         2.28326         1.64602 
        1.22108         2.26051          1.6267 
         1.2272         2.24528         1.60775 
        1.23334         2.21529         1.58905 
        1.23949         2.19153          1.5706 
        1.24562         2.17793         1.55251 
        1.25174          2.1515         1.53472 
        1.25789         2.13417         1.51717 
        1.26402         2.10764         1.49992 
        1.27014         2.08827         1.48298 
        1.27628         2.07911         1.46625 
        1.28244         2.04946         1.44975 
        1.28858         2.03522         1.43353 
        1.29471         2.01378          1.4176 
        1.30084         1.99331         1.40192 
        1.30697         1.98235         1.38646 
        1.31312         1.95064         1.37121 
        1.31925          1.9422         1.35623 
        1.32537         1.92429          1.3415 
        1.33151         1.90981         1.32693 
        1.33765         1.88679         1.31259 
        1.34378         1.86929         1.29849 
        1.34992         1.86144         1.28459 
        1.35606          1.8349         1.27086 
         1.3622         1.82597         1.25736 
        1.36833          1.8083         1.24408 
        1.37445          1.7892         1.23101 
        1.38059         1.77731         1.21809 
        1.38675         1.77003         1.20532 
        1.39288         1.74653         1.19278 
        1.39901         1.73028         1.18043 
        1.40515         1.71737         1.16823 
         1.4113         1.70341         1.15621 
        1.41742         1.68955          1.1444 
        1.42355         1.68185         1.13274 
         1.4297         1.65964          1.1212 
        1.43585         1.65012         1.10983 
        1.44198         1.64062         1.09866 
        1.44809         1.61906         1.08767 
        1.45423         1.60735         1.07679 
        1.46036         1.59441         1.06607 
        1.46649         1.58119          1.0555 
        1.47263         1.56743         1.04507 
        1.47877         1.55254         1.03478 
        1.48491         1.54114         1.02461 
        1.49104         1.53091          1.0146 
        1.49718         1.52131         1.00472 
        1.50333         1.50598        0.994952 
        1.50947         1.49751        0.985336 
         1.5156         1.48385        0.975862 
        1.52172         1.47206        0.966513 
        1.52787         1.45929        0.957268 
          1.534         1.45091        0.948156 
        1.54013         1.43658        0.939173 
        1.54627         1.42399         0.93029 
        1.55241         1.41298        0.921521 
        1.55855          1.4046        0.912878 
        1.56467         1.39539         0.90437 
         1.5708         1.37979        0.895947 
        1.57695         1.37411        0.887619 
        1.58308         1.36344        0.879416 
        1.58922         1.35329        0.871312 
        1.59535         1.34319        0.863314 
         1.6015         1.33325        0.855405 
        1.60764         1.32546        0.847599 
        1.61376         1.31433        0.839913 
        1.61989          1.3044        0.832316 
        1.62604         1.29355        0.824797 
        1.63218         1.28898        0.817375 
        1.63831         1.27481        0.810062 
        1.64444         1.26551        0.802836 
        1.65059         1.25952        0.795681 
        1.65673         1.24832        0.788621 
        1.66285         1.23904        0.781667 
        1.66898          1.2337        0.774794 
        1.67512         1.22069        0.767991 
        1.68127         1.21285        0.761264 
         1.6874         1.20787        0.754632 
        1.69353          1.1948        0.748083 
        1.69967          1.1866        0.741597 
        1.70581         1.18291        0.735191 
        1.71193         1.17204        0.728885 
        1.71806         1.16674         0.72264 
        1.72421         1.15705        0.716456 
        1.73035          1.1478        0.710351 
        1.73649         1.14204        0.704319 
        1.74262          1.1341        0.698363 
        1.74876         1.12631        0.692471 
        1.75489         1.11579         0.68666 
        1.76101         1.10972        0.680918 
        1.76715         1.10308        0.675233 
        1.77329         1.09651        0.669607 
        1.77943         1.08698        0.664042 
        1.78557         1.07974         0.65855 
        1.79171         1.07598        0.653118 
        1.79785         1.06678        0.647747 
        1.80399         1.06059        0.642438 
        1.81012         1.05515        0.637196 
        1.81625         1.04625        0.632014 
        1.82239         1.04024        0.626883 
        1.82853         1.02936        0.621811 
        1.83466         1.02594          0.6168 
        1.84078         1.01833         0.61185 
        1.84692         1.01449        0.606947 
        1.85306         1.00673        0.602091 
         1.8592         1.00152        0.597296 
        1.86533        0.993711        0.592556 
        1.87147        0.988571        0.587862 
        1.87761         0.98203        0.583216 
        1.88375        0.973262        0.578627 
        1.88988        0.970546        0.574092 
        1.89601        0.962793        0.569603 
        1.90215         0.95671        0.565159 
        1.90829        0.949963        0.560764 
        1.91442        0.944676        0.556416 
        1.92056        0.939815        0.552118 
         1.9267         0.93336        0.547861 
        1.93284        0.930079        0.543646 
        1.93897        0.923073        0.539484 
        1.94509        0.917169        0.535375 
        1.95123         0.91057        0.531298 
        1.95737        0.906088        0.527261 
        1.96349        0.899375        0.523276 
        1.96964        0.895301        0.519321 
        1.97578        0.889613        0.515406 
        1.98192         0.88606        0.511538 
        1.98805        0.878188         0.50771 
        1.99419        0.875366        0.503922 
        2.00033        0.871862         0.50017 
        2.00647        0.863413        0.496457 
         2.0126        0.859999        0.492789 
        2.01874        0.854658        0.489152 
        2.02488        0.850653        0.485549 
        2.03101        0.843225        0.481988 
        2.03714         0.83746        0.478467 
        2.04328        0.836095        0.474978 
        2.04941        0.829884        0.471525 
        2.05554         0.82506         0.46811 
        2.06167        0.819751        0.464724 
        2.06781        0.815226        0.461371 
        2.07396         0.80964        0.458047 
        2.08009        0.806321         0.45476 
        2.08622         0.80074         0.45151 
        2.09237         0.79922        0.448286 
        2.09851        0.794378        0.445092 
        2.10464         0.79047        0.441935 
        2.11077        0.784724        0.438812 
        2.11691        0.779632        0.435712 
        2.12305        0.776268        0.432643 
        2.12918         0.77167         0.42961 
        2.13531         0.76763        0.426606 
        2.14145        0.763092        0.423624 
         2.1476        0.758233        0.420667 
        2.15372        0.755695        0.417753 
        2.15985        0.750005        0.414864 
        2.16599        0.745847        0.411994 
        2.17213        0.742254        0.409155 
        2.17827        0.739957        0.406343 
         2.1844        0.735902        0.403559 
        2.19054        0.732721        0.400801 
        2.19666        0.727511        0.398073 
         2.2028        0.723579        0.395368 
        2.20893        0.719667        0.392687 
        2.21508        0.717296        0.390027 
        2.22122        0.710466        0.387392 
        2.22736        0.707449        0.384786 
        2.23349        0.707039        0.382205 
        2.23962        0.701405        0.379647 
        2.24577        0.696835        0.377109 
         2.2519        0.693369        0.374599 
        2.25802         0.69056        0.372115 
        2.26417         0.68544        0.369647 
        2.27031        0.682876        0.367199 
        2.27644        0.679599        0.364781 
        2.28257        0.676727        0.362384 
        2.28872        0.672596        0.360005 
        2.29486         0.66943        0.357647 
        2.30099        0.665295        0.355315 
        2.30712        0.662545        0.353004 
        2.31326        0.659731        0.350708 
         2.3194         0.65755        0.348435 
        2.32553        0.653939        0.346186 
        2.33166        0.649956        0.343957 
         2.3378        0.646404        0.341745 
        2.34394        0.642133        0.339552 
        2.35007        0.639598        0.337381 
        2.35619        0.637461        0.335231 
        2.36233        0.632501        0.333096 
        2.36848        0.630675        0.330974 
        2.37462        0.626768        0.328876 
        2.38075        0.625474        0.326797 
        2.38689        0.621523        0.324735 
        2.39303        0.619392        0.322691 
        2.39916        0.614276        0.320667 
        2.40529        0.613258        0.318661 
        2.41143        0.610057         0.31667 
        2.41757        0.607064        0.314695 
         2.4237         0.60455        0.312741 
        2.42983        0.601753        0.310804 
        2.43598        0.598727        0.308877 
        2.44211        0.596375        0.306971 
        2.44823        0.593308        0.305085 
        2.45437        0.590257        0.303209 
        2.46052        0.589002        0.301348 
        2.46665        0.585166        0.299506 
        2.47279         0.58221         0.29768 
        2.47892        0.578772        0.295868 
        2.48507        0.576775        0.294069 
         2.4912        0.574106        0.292289 
