# k  (h/Mpc)    Pcb(k)  (Mpc/h)^3    Pcb_linear(k)  (Mpc/h)^3
     0.00783031         6015.13         6088.36 
       0.013688         7429.82          7400.6 
       0.019231          7407.2          7395.5 
      0.0249154         6686.39         6766.27 
      0.0312784         5800.18         5825.01 
      0.0375637          4983.1         4971.09 
      0.0433917         4327.06         4362.39 
      0.0492413         3919.83         3928.56 
      0.0555754         3539.66         3597.54 
      0.0619321         3343.43         3328.54 
       0.067871         3035.52          3076.2 
      0.0738098          2762.6         2799.38 
      0.0800417          2444.6         2491.42 
      0.0862327         2176.83         2196.72 
      0.0921407         1955.69         1953.32 
      0.0982031         1750.57         1757.29 
       0.104506         1636.68         1610.73 
       0.110769         1527.85         1508.81 
       0.116806         1437.98          1432.3 
       0.122832         1372.33         1359.28 
       0.129052         1271.37         1275.56 
       0.135211         1183.93         1181.83 
       0.141259         1105.21         1084.85 
       0.147318         1022.41         991.799 
       0.153489         933.571         909.405 
       0.159709         876.306         843.264 
       0.165845         838.232          794.02 
       0.171974         791.479         756.501 
       0.178125         758.583         724.722 
       0.184229         728.849         693.713 
        0.19034          679.97          659.99 
       0.196428         658.471         623.199 
       0.202534         629.804         584.787 
       0.208729         591.072         547.072 
       0.214876         555.496         513.439 
       0.220989         535.326         485.114 
       0.227147         506.572         461.732 
        0.23329         486.914         442.403 
       0.239377         474.913         425.513 
       0.245482         445.198         409.242 
       0.251667         438.177         392.357 
       0.257832         421.551         374.817 
       0.263955         404.495         357.098 
       0.270079         387.971         339.806 
        0.27624         379.764         323.621 
       0.282372         364.227         309.191 
        0.28843         351.556         296.657 
       0.294538         336.236         285.509 
       0.300721         332.331         275.257 
        0.30691         317.033         265.541 
       0.313033         309.253         256.082 
       0.319153         296.777         246.642 
       0.325316         289.285         237.178 
        0.33145          279.16         227.997 
       0.337538         274.503         219.316 
       0.343633         264.992         211.223 
       0.349808         256.462         203.684 
       0.355968          252.07         196.775 
       0.362074         245.324         190.413 
       0.368217         238.566         184.344 
       0.374374         230.653         178.477 
       0.380519         226.527         172.758 
       0.386598         220.543          167.22 
       0.392688         217.236         161.829 
        0.39888         211.395         156.553 
       0.405048         206.316         151.554 
       0.411186         201.726         146.862 
       0.417313         197.295         142.443 
       0.423458         193.135         138.253 
       0.429607         188.547         134.262 
       0.435692         182.708         130.464 
       0.441815         181.274         126.765 
       0.447964         178.036         123.164 
       0.454126         170.356         119.667 
       0.460267         168.449         116.299 
       0.466387         165.996         113.072 
        0.47254         162.473         109.968 
       0.478662         160.917         107.013 
       0.484765         156.193         104.191 
       0.490885         153.679         101.478 
       0.497035         151.657         98.8546 
       0.503198         147.481         96.3167 
       0.509342         145.063         93.8659 
       0.515458         142.974         91.5031 
       0.521598         140.897         89.2088 
       0.527764         138.725         86.9835 
       0.533884           136.5          84.852 
           0.54          134.08         82.7972 
       0.546137         132.908         80.8079 
       0.552299         130.682         78.8816 
       0.558452         128.042          77.025 
       0.564573         125.775         75.2386 
       0.570708         123.936          73.504 
       0.576825         122.251         71.8269 
       0.582926         119.964         70.2048 
       0.589034         118.011         68.6303 
       0.595184         116.626         67.0945 
       0.601379         115.268         65.5969 
       0.607522          112.53         64.1588 
       0.613639         112.206         62.7711 
       0.619772         109.689          61.422 
       0.625918         108.533         60.1105 
       0.632068         107.306         58.8366 
       0.638161         106.082         57.6111 
         0.6443         104.623          56.412 
       0.650464         103.383         55.2428 
       0.656582         101.991         54.1155 
       0.662703         100.178         53.0198 
       0.668861         99.0325         51.9487 
       0.675024         97.8796         50.9067 
       0.681124         96.7997         49.9042 
       0.687237         95.0598          48.927 
       0.693381         94.0038         47.9718 
       0.699536         92.9147         47.0406 
       0.705665         93.2373         46.1383 
       0.711789         90.7008         45.2608 
       0.717957         90.1956         44.4003 
        0.72409         88.8921         43.5671 
       0.730186         87.4137         42.7606 
       0.736317         87.2049         41.9703 
       0.742472         86.1912         41.1973 
       0.748622         85.3551         40.4447 
        0.75476         84.4273         39.7126 
       0.760888          83.243              39 
       0.767043         82.4802         38.3023 
       0.773185         81.5189         37.6232 
       0.779291         80.8429         36.9646 
       0.785407         80.1463         36.3209 
       0.791564         79.1814         35.6887 
       0.797719         77.9992          35.072 
       0.803834         77.7029         34.4739 
       0.809972          76.379         33.8877 
       0.816124         75.8838         33.3139 
       0.822261         75.2787         32.7551 
       0.828378         74.6326         32.2109 
       0.834502         73.8795         31.6788 
       0.840667         73.1766         31.1553 
       0.846816         72.2602         30.6452 
       0.852925         71.6608         30.1499 
       0.859047          70.731         29.6646 
       0.865192         70.3839         29.1884 
       0.871341         69.9353         28.7225 
       0.877463         68.7581          28.269 
       0.883569          68.342         27.8264 
       0.889708         67.9533         27.3912 
       0.895864         67.3382         26.9642 
       0.902008         66.7232         26.5473 
       0.908149         66.2453         26.1396 
       0.914301         65.6301         25.7398 
       0.920448         65.0798         25.3488 
       0.926574          64.484         24.9674 
       0.932687         64.1406         24.5947 
       0.938823         63.1321         24.2283 
       0.944975         62.9076         23.8686 
       0.951105         62.3059         23.5176 
       0.957225         61.5338         23.1742 
       0.963368         61.4531         22.8366 
       0.969511          60.993         22.5058 
       0.975621         60.5435         22.1833 
       0.981748          59.872         21.8664 
       0.987916         59.4741         21.5537 
        0.99406         59.1212         21.2484 
        1.00019         58.4134         20.9496 
        1.00632         58.1761         20.6569 
        1.01246         57.6627         20.3693 
        1.01859         56.8969         20.0878 
        1.02471         57.0582          19.812 
        1.03085         56.4077         19.5404 
        1.03698         55.9025         19.2745 
        1.04314         55.3722         19.0125 
        1.04929         55.1064          18.756 
        1.05541         54.5342         18.5053 
        1.06154         54.4766         18.2585 
        1.06769         53.9479         18.0159 
        1.07382         53.6645         17.7786 
        1.07993            53.4         17.5461 
        1.08607         52.8403         17.3168 
        1.09222         52.6076         17.0914 
        1.09836         52.2126         16.8703 
        1.10449         51.8149         16.6534 
        1.11063         51.2921         16.4401 
        1.11677         51.0146         16.2306 
         1.1229         50.7647         16.0252 
        1.12903         50.0506         15.8231 
        1.13518         50.1936         15.6244 
        1.14131         49.9145         15.4293 
        1.14745           49.22         15.2376 
        1.15359         49.1768         15.0491 
        1.15973         48.6272         14.8638 
        1.16584         48.3389         14.6825 
        1.17197         48.1273         14.5039 
        1.17811         47.8355         14.3278 
        1.18424         47.3417         14.1551 
        1.19038          47.211         13.9848 
        1.19652         47.0034         13.8173 
        1.20267         46.6295         13.6526 
        1.20881         46.3161         13.4907 
        1.21495         45.9463         13.3316 
        1.22108         45.6978         13.1752 
         1.2272         45.2364         13.0216 
        1.23334         45.1006         12.8702 
        1.23949          45.008         12.7208 
        1.24562         44.6155         12.5742 
        1.25174         44.4298         12.4302 
        1.25789         44.1481          12.288 
        1.26402         43.7902         12.1483 
        1.27014         43.4082         12.0111 
        1.27628         43.2888         11.8756 
        1.28244         42.9608          11.742 
        1.28858         42.8144         11.6106 
        1.29471         42.6407         11.4816 
        1.30084           42.38         11.3546 
        1.30697         42.0262         11.2293 
        1.31312         41.6957         11.1058 
        1.31925         41.6259         10.9846 
        1.32537         41.3975         10.8652 
        1.33151         41.0595         10.7472 
        1.33765         41.0082         10.6311 
        1.34378         40.7234         10.5169 
        1.34992         40.2934         10.4043 
        1.35606         40.0996         10.2931 
         1.3622         39.8928         10.1837 
        1.36833         39.6922         10.0762 
        1.37445         39.6397         9.97035 
        1.38059          39.378         9.86567 
        1.38675         39.0438         9.76225 
        1.39288         38.9379         9.66073 
        1.39901         38.6098         9.56071 
        1.40515         38.4538         9.46188 
         1.4113         38.3353          9.3645 
        1.41742          37.976         9.26887 
        1.42355         37.8406         9.17439 
         1.4297          37.612         9.08096 
        1.43585         37.5393         8.98887 
        1.44198         37.2231         8.89841 
        1.44809          37.071         8.80938 
        1.45423         36.9284         8.72124 
        1.46036         36.7658         8.63446 
        1.46649         36.4914         8.54884 
        1.47263         36.3187         8.46432 
        1.47877         36.2117         8.38098 
        1.48491         36.0405         8.29863 
        1.49104         35.8108         8.21756 
        1.49718         35.4718         8.13752 
        1.50333          35.436         8.05843 
        1.50947         35.2749         7.98054 
         1.5156         35.0382         7.90381 
        1.52172         34.8384         7.82809 
        1.52787         34.8288         7.75322 
          1.534         34.5355         7.67942 
        1.54013         34.3169         7.60665 
        1.54627         34.2513         7.53471 
        1.55241         34.0172         7.46369 
        1.55855         33.8398         7.39368 
        1.56467         33.5939         7.32478 
         1.5708         33.6009         7.25655 
        1.57695         33.2688          7.1891 
        1.58308         33.2824         7.12267 
        1.58922         33.1185         7.05703 
        1.59535         32.8809         6.99225 
         1.6015          32.697         6.92819 
        1.60764         32.5945         6.86497 
        1.61376         32.4054         6.80272 
        1.61989         32.1529         6.74119 
        1.62604         32.1326         6.68029 
        1.63218         31.9284         6.62018 
        1.63831         31.8085         6.56095 
        1.64444         31.6732         6.50242 
        1.65059         31.4232         6.44447 
        1.65673         31.2887         6.38729 
        1.66285         31.1873         6.33096 
        1.66898          31.011          6.2753 
        1.67512         30.9146          6.2202 
        1.68127         30.6824         6.16571 
         1.6874         30.6004           6.112 
        1.69353         30.4517         6.05896 
        1.69967         30.2943         6.00643 
        1.70581         30.1878         5.95454 
        1.71193         30.0452         5.90347 
        1.71806         29.8665         5.85289 
        1.72421         29.6913          5.8028 
        1.73035         29.5763         5.75336 
        1.73649         29.4798          5.7045 
        1.74262         29.3041         5.65626 
        1.74876         29.2923         5.60854 
        1.75489         29.0677         5.56147 
        1.76101         28.9285         5.51496 
        1.76715         28.8116         5.46892 
        1.77329         28.7155         5.42335 
        1.77943         28.5652         5.37829 
        1.78557         28.4245          5.3338 
        1.79171         28.3109         5.28981 
        1.79785         28.1641         5.24631 
        1.80399         28.0418         5.20331 
        1.81012         27.9826         5.16085 
        1.81625         27.8148         5.11888 
        1.82239         27.7543         5.07732 
        1.82853         27.5155         5.03624 
        1.83466         27.4093         4.99566 
        1.84078         27.2275         4.95557 
        1.84692         27.1856         4.91585 
        1.85306         27.0554         4.87652 
         1.8592         26.9179         4.83768 
        1.86533         26.7765         4.79929 
        1.87147         26.6847         4.76127 
        1.87761         26.6574         4.72365 
        1.88375         26.5038         4.68648 
        1.88988         26.4107         4.64975 
        1.89601         26.2157         4.61339 
        1.90215         26.1723          4.5774 
        1.90829         26.0981          4.5418 
        1.91442         25.9092         4.50659 
        1.92056         25.8529         4.47177 
         1.9267         25.6873          4.4373 
        1.93284         25.5582         4.40316 
        1.93897         25.5054         4.36945 
        1.94509         25.3829         4.33617 
        1.95123         25.2386         4.30315 
        1.95737         25.1546         4.27045 
        1.96349         25.0449         4.23818 
        1.96964         24.9082         4.20614 
        1.97578         24.8739         4.17443 
        1.98192         24.6909         4.14311 
        1.98805         24.6481         4.11211 
        1.99419          24.515         4.08142 
        2.00033         24.3581         4.05103 
        2.00647         24.2844         4.02096 
         2.0126         24.1642         3.99125 
        2.01874         24.1026         3.96179 
        2.02488         24.0839         3.93261 
        2.03101         23.8932         3.90378 
        2.03714         23.7917         3.87526 
        2.04328         23.6811         3.84699 
        2.04941         23.6131         3.81903 
        2.05554         23.5263         3.79137 
        2.06167         23.4247         3.76395 
        2.06781         23.3253         3.73679 
        2.07396         23.2386         3.70986 
        2.08009         23.1763         3.68325 
        2.08622         23.0266         3.65692 
        2.09237         22.9484         3.63081 
        2.09851         22.8466         3.60494 
        2.10464         22.7941         3.57937 
        2.11077         22.6124         3.55407 
        2.11691         22.5917         3.52897 
        2.12305         22.4881         3.50411 
        2.12918         22.4393         3.47954 
        2.13531         22.3162         3.45521 
        2.14145          22.253         3.43106 
         2.1476         22.1149         3.40711 
        2.15372         22.0371         3.38351 
        2.15985         21.9213         3.36011 
        2.16599         21.8676         3.33687 
        2.17213         21.8079         3.31387 
        2.17827         21.6456         3.29109 
         2.1844          21.552         3.26855 
        2.19054          21.489         3.24622 
        2.19666         21.4304         3.22412 
         2.2028         21.3649         3.20221 
        2.20893         21.2453         3.18049 
        2.21508         21.1607         3.15895 
        2.22122         21.0218         3.13761 
        2.22736         21.0175          3.1165 
        2.23349         20.9038          3.0956 
        2.23962         20.8138         3.07488 
        2.24577         20.7036         3.05433 
         2.2519          20.664         3.03399 
        2.25802         20.5836         3.01388 
        2.26417         20.5091         2.99389 
        2.27031         20.4264         2.97406 
        2.27644         20.3557         2.95447 
        2.28257         20.2499         2.93506 
        2.28872         20.1423         2.91579 
        2.29486          20.093          2.8967 
        2.30099         19.9971         2.87781 
        2.30712         19.9828         2.85909 
        2.31326         19.8847          2.8405 
         2.3194          19.784         2.82208 
        2.32553         19.7037         2.80386 
        2.33166         19.6005         2.78581 
         2.3378         19.5219          2.7679 
        2.34394         19.4808         2.75013 
        2.35007         19.3952         2.73255 
        2.35619         19.2731         2.71514 
        2.36233         19.2483         2.69784 
        2.36848         19.1426         2.68066 
        2.37462         19.0919         2.66367 
        2.38075         19.0138         2.64683 
        2.38689         18.9755         2.63013 
        2.39303         18.8515         2.61358 
        2.39916         18.7925         2.59718 
        2.40529         18.7084         2.58093 
        2.41143         18.6688         2.56481 
        2.41757         18.5862         2.54881 
         2.4237         18.5015         2.53299 
        2.42983          18.441         2.51729 
        2.43598         18.3746         2.50169 
        2.44211         18.2875         2.48625 
        2.44823         18.1987         2.47098 
        2.45437         18.1545         2.45579 
        2.46052         18.0901         2.44071 
        2.46665         18.0429         2.42579 
        2.47279         17.9438           2.411 
        2.47892         17.9055         2.39632 
        2.48507         17.8178         2.38176 
         2.4912         17.7599         2.36734 
