# k  (h/Mpc)    Pcb(k)  (Mpc/h)^3    Pcb_linear(k)  (Mpc/h)^3
     0.00783031         15767.4         16001.2 
       0.013688         19618.2         19442.7 
       0.019231         19456.3         19422.8 
      0.0249154         17390.3         17766.1 
      0.0312784         15115.7         15292.3 
      0.0375637         13037.4         13049.2 
      0.0433917         11232.2         11450.5 
      0.0492413           10215         10311.1 
      0.0555754         9124.87         9441.91 
      0.0619321         8720.36         8735.59 
       0.067871         7826.69         8073.12 
      0.0738098         7133.54         7346.48 
      0.0800417         6290.75         6538.17 
      0.0862327         5640.72         5764.72 
      0.0921407         5124.59         5125.92 
      0.0982031         4589.63         4611.43 
       0.104506         4338.75         4226.81 
       0.110769         4043.71         3959.31 
       0.116806         3818.15         3758.53 
       0.122832         3629.82          3566.9 
       0.129052         3342.32         3347.19 
       0.135211         3131.07         3101.23 
       0.141259          2961.7         2846.73 
       0.147318         2766.25         2602.54 
       0.153489         2528.95         2386.33 
       0.159709          2396.5         2212.77 
       0.165845         2315.05         2083.54 
       0.171974         2197.46         1985.09 
       0.178125         2095.98         1901.69 
       0.184229         2005.24         1820.32 
        0.19034         1887.78         1731.83 
       0.196428         1840.27         1635.28 
       0.202534         1762.16         1534.49 
       0.208729         1674.55         1435.52 
       0.214876         1601.94         1347.27 
       0.220989         1546.84         1272.94 
       0.227147         1483.21         1211.59 
        0.23329         1426.71         1160.87 
       0.239377         1403.75         1116.55 
       0.245482         1315.43         1073.85 
       0.251667         1306.65         1029.54 
       0.257832         1253.34         983.518 
       0.263955         1210.28         937.022 
       0.270079         1167.08         891.649 
        0.27624         1152.96         849.177 
       0.282372         1105.03         811.314 
        0.28843         1095.49         778.425 
       0.294538         1040.39         749.171 
       0.300721         1035.17          722.27 
        0.30691          993.17         696.775 
       0.313033         973.521         671.955 
       0.319153         954.807         647.184 
       0.325316         923.803         622.351 
        0.33145         901.955          598.26 
       0.337538         886.375         575.482 
       0.343633          865.11         554.244 
       0.349808         834.995         534.463 
       0.355968         829.565         516.333 
       0.362074         820.541          499.64 
       0.368217          795.09         483.713 
       0.374374         763.573         468.319 
       0.380519         764.298         453.312 
       0.386598         742.649          438.78 
       0.392688         740.057         424.636 
        0.39888         718.243          410.79 
       0.405048         707.708         397.673 
       0.411186         697.774         385.362 
       0.417313         683.255         373.766 
       0.423458         670.782         362.773 
       0.429607         661.996         352.299 
       0.435692         647.011         342.334 
       0.441815         641.455         332.626 
       0.447964         628.309         323.179 
       0.454126         620.448         314.003 
       0.460267         606.184         305.164 
       0.466387           599.4         296.699 
        0.47254         592.659         288.551 
       0.478662         588.478         280.798 
       0.484765         569.821         273.395 
       0.490885         565.931         266.275 
       0.497035         554.649         259.391 
       0.503198         550.087         252.732 
       0.509342         545.184         246.301 
       0.515458         541.065         240.101 
       0.521598         527.291         234.081 
       0.527764         518.188         228.242 
       0.533884         516.089         222.649 
           0.54         509.811         217.257 
       0.546137         506.583         212.037 
       0.552299          498.24         206.983 
       0.558452         495.338         202.111 
       0.564573         488.816         197.423 
       0.570708         482.262         192.872 
       0.576825         469.864         188.471 
       0.582926          470.56         184.215 
       0.589034         466.217         180.084 
       0.595184         462.162         176.054 
       0.601379         455.121         172.124 
       0.607522         448.936          168.35 
       0.613639         448.029         164.709 
       0.619772         438.143         161.169 
       0.625918         436.438         157.728 
       0.632068         429.845         154.385 
       0.638161         428.258          151.17 
         0.6443          420.93         148.023 
       0.650464         418.357         144.955 
       0.656582         415.223         141.997 
       0.662703         413.834         139.122 
       0.668861         406.732         136.311 
       0.675024         403.353         133.577 
       0.681124         400.224         130.947 
       0.687237         396.606         128.383 
       0.693381          391.18         125.876 
       0.699536         386.156         123.433 
       0.705665          384.34         121.065 
       0.711789         382.449         118.763 
       0.717957          379.07         116.505 
        0.72409         376.584         114.319 
       0.730186         371.603         112.202 
       0.736317         368.439         110.129 
       0.742472         366.667           108.1 
       0.748622          362.63         106.125 
        0.75476         358.149         104.204 
       0.760888          354.65         102.335 
       0.767043         355.152         100.504 
       0.773185         351.057         98.7218 
       0.779291         346.249         96.9936 
       0.785407         345.015         95.3048 
       0.791564          340.74         93.6458 
       0.797719         338.533         92.0276 
       0.803834         335.183         90.4581 
       0.809972          334.51         88.9199 
       0.816124         333.562         87.4144 
       0.822261         329.121         85.9482 
       0.828378         326.728         84.5203 
       0.834502         323.891         83.1239 
       0.840667         321.221         81.7503 
       0.846816         319.662         80.4119 
       0.852925         317.426         79.1122 
       0.859047         315.366         77.8387 
       0.865192         311.596         76.5893 
       0.871341         309.241         75.3668 
       0.877463         308.499         74.1766 
       0.883569         306.358         73.0154 
       0.889708         303.371         71.8734 
       0.895864         301.508          70.753 
       0.902008           299.3         69.6591 
       0.908149         296.802         68.5892 
       0.914301         293.889         67.5402 
       0.920448         292.302         66.5143 
       0.926574         288.809         65.5134 
       0.932687         289.065         64.5355 
       0.938823         285.912         63.5741 
       0.944975         285.321         62.6303 
       0.951105         282.773         61.7091 
       0.957225         280.846         60.8082 
       0.963368         277.323         59.9223 
       0.969511         276.432         59.0542 
       0.975621         274.193         58.2081 
       0.981748         273.576         57.3765 
       0.987916         271.692          56.556 
        0.99406          267.78         55.7548 
        1.00019         267.175         54.9709 
        1.00632         265.804         54.2028 
        1.01246         263.536         53.4483 
        1.01859         263.994         52.7096 
        1.02471         259.702         51.9858 
        1.03085         258.221         51.2732 
        1.03698         257.209         50.5756 
        1.04314         254.688          49.888 
        1.04929         252.975          49.215 
        1.05541         253.502         48.5571 
        1.06154         249.374         47.9096 
        1.06769         248.947         47.2731 
        1.07382         247.103         46.6503 
        1.07993         245.444         46.0401 
        1.08607         244.835         45.4385 
        1.09222         242.653          44.847 
        1.09836         241.009         44.2669 
        1.10449         238.598         43.6977 
        1.11063         236.675          43.138 
        1.11677         236.337         42.5884 
         1.1229         234.427         42.0494 
        1.12903         233.278         41.5192 
        1.13518         231.615         40.9979 
        1.14131         229.833         40.4858 
        1.14745         229.728         39.9828 
        1.15359         227.574         39.4883 
        1.15973         225.848         39.0021 
        1.16584         224.371         38.5262 
        1.17197          224.35         38.0577 
        1.17811         221.529         37.5955 
        1.18424          220.34         37.1424 
        1.19038         219.731         36.6955 
        1.19652         217.845         36.2561 
        1.20267         217.521          35.824 
        1.20881         215.466          35.399 
        1.21495         214.216         34.9817 
        1.22108         212.876         34.5712 
         1.2272         211.443         34.1683 
        1.23334         210.724         33.7709 
        1.23949         208.963         33.3789 
        1.24562         208.156         32.9943 
        1.25174         206.678         32.6164 
        1.25789         205.196         32.2432 
        1.26402         203.473         31.8766 
        1.27014         202.335         31.5167 
        1.27628         201.392         31.1612 
        1.28244         201.301         30.8106 
        1.28858         199.018         30.4658 
        1.29471          197.69         30.1272 
        1.30084          196.83          29.794 
        1.30697          195.34         29.4654 
        1.31312         193.828         29.1412 
        1.31925         193.117          28.823 
        1.32537         192.468         28.5099 
        1.33151          190.51         28.2003 
        1.33765         189.326         27.8955 
        1.34378         188.696         27.5958 
        1.34992          187.75         27.3004 
        1.35606         187.682         27.0086 
         1.3622         185.708         26.7217 
        1.36833         183.958         26.4396 
        1.37445         183.334         26.1618 
        1.38059         181.858         25.8871 
        1.38675         181.284         25.6157 
        1.39288         180.232         25.3494 
        1.39901         179.759         25.0869 
        1.40515         177.885         24.8276 
         1.4113         177.044         24.5721 
        1.41742         175.753         24.3211 
        1.42355         174.948         24.0732 
         1.4297         173.633         23.8281 
        1.43585         172.899         23.5864 
        1.44198          172.01         23.3491 
        1.44809         171.214         23.1154 
        1.45423         170.305         22.8842 
        1.46036          169.09         22.6565 
        1.46649         167.909         22.4318 
        1.47263         166.879           22.21 
        1.47877         165.955         21.9913 
        1.48491         164.436         21.7753 
        1.49104         164.353         21.5626 
        1.49718         162.699         21.3525 
        1.50333         162.074          21.145 
        1.50947         161.266         20.9406 
         1.5156         160.145         20.7393 
        1.52172         159.412         20.5406 
        1.52787         157.972         20.3441 
          1.534         157.667         20.1505 
        1.54013         156.575         19.9596 
        1.54627         155.652         19.7708 
        1.55241         154.663         19.5844 
        1.55855         153.813         19.4007 
        1.56467         152.665         19.2199 
         1.5708         151.959         19.0409 
        1.57695         151.395         18.8639 
        1.58308         150.524         18.6896 
        1.58922         149.725         18.5174 
        1.59535         148.453         18.3474 
         1.6015         148.075         18.1793 
        1.60764         147.114         18.0134 
        1.61376         146.187         17.8501 
        1.61989         145.389         17.6886 
        1.62604         144.291         17.5288 
        1.63218         143.953         17.3711 
        1.63831         142.832         17.2157 
        1.64444          142.23         17.0621 
        1.65059         141.424           16.91 
        1.65673         140.277           16.76 
        1.66285          139.85         16.6122 
        1.66898         138.787         16.4661 
        1.67512         138.548         16.3216 
        1.68127         137.279         16.1786 
         1.6874         136.366         16.0376 
        1.69353         135.979         15.8985 
        1.69967         135.018         15.7606 
        1.70581         134.317         15.6245 
        1.71193         133.464         15.4905 
        1.71806         132.951         15.3577 
        1.72421         132.145         15.2263 
        1.73035         131.884         15.0966 
        1.73649         130.923         14.9684 
        1.74262         129.958         14.8418 
        1.74876         129.451         14.7166 
        1.75489         128.537         14.5931 
        1.76101         127.624          14.471 
        1.76715         127.296         14.3502 
        1.77329         126.845         14.2307 
        1.77943         125.798         14.1124 
        1.78557         125.334         13.9957 
        1.79171         124.469         13.8802 
        1.79785         123.726         13.7661 
        1.80399         123.014         13.6533 
        1.81012         122.447         13.5419 
        1.81625         121.869         13.4317 
        1.82239         121.314         13.3227 
        1.82853         120.483         13.2149 
        1.83466         119.746         13.1084 
        1.84078         119.291         13.0032 
        1.84692         118.231          12.899 
        1.85306         118.074         12.7958 
         1.8592          117.21         12.6939 
        1.86533         116.404         12.5931 
        1.87147         115.794         12.4934 
        1.87761         115.099         12.3947 
        1.88375         114.367         12.2971 
        1.88988         113.889         12.2008 
        1.89601         113.263         12.1054 
        1.90215         112.665         12.0109 
        1.90829         112.075         11.9175 
        1.91442         111.518         11.8251 
        1.92056         110.755         11.7338 
         1.9267         110.457         11.6433 
        1.93284         109.741         11.5537 
        1.93897         109.064         11.4653 
        1.94509         108.595         11.3779 
        1.95123         108.006         11.2913 
        1.95737         107.484         11.2055 
        1.96349         106.858         11.1208 
        1.96964         105.913         11.0368 
        1.97578         105.395         10.9535 
        1.98192         105.183         10.8713 
        1.98805          104.36           10.79 
        1.99419         104.022         10.7095 
        2.00033         103.258         10.6297 
        2.00647          102.95         10.5508 
         2.0126         102.148         10.4729 
        2.01874         101.571         10.3956 
        2.02488         101.245          10.319 
        2.03101         100.439         10.2433 
        2.03714         99.8912         10.1685 
        2.04328         99.4949         10.0943 
        2.04941         98.8924          10.021 
        2.05554         98.3082          9.9484 
        2.06167         97.9726         9.87644 
        2.06781         97.2435         9.80518 
        2.07396         96.8359         9.73453 
        2.08009         96.4343         9.66469 
        2.08622         95.7511         9.59562 
        2.09237         95.2775         9.52708 
        2.09851         94.7889         9.45921 
        2.10464         94.3749         9.39211 
        2.11077         93.8813         9.32574 
        2.11691          93.481         9.25987 
        2.12305         92.7246         9.19463 
        2.12918         92.1813         9.13018 
        2.13531         91.8559         9.06634 
        2.14145         91.1005         9.00297 
         2.1476         90.6307         8.94013 
        2.15372         90.3581          8.8782 
        2.15985         89.9111          8.8168 
        2.16599         89.2698         8.75581 
        2.17213         88.8511         8.69546 
        2.17827         88.4386          8.6357 
         2.1844         87.8397         8.57655 
        2.19054         87.5831         8.51794 
        2.19666         87.1132         8.45996 
         2.2028         86.5984         8.40247 
        2.20893         86.1775         8.34548 
        2.21508          85.692         8.28897 
        2.22122         85.2173         8.23295 
        2.22736         84.8023         8.17758 
        2.23349          84.427         8.12273 
        2.23962         83.9935         8.06835 
        2.24577         83.5667         8.01443 
         2.2519         83.2004         7.96107 
        2.25802         82.5517         7.90829 
        2.26417         82.2125         7.85584 
        2.27031         81.8098         7.80381 
        2.27644         81.2954         7.75242 
        2.28257         80.8143         7.70148 
        2.28872         80.6255         7.65091 
        2.29486         79.9651         7.60081 
        2.30099         79.5603         7.55126 
        2.30712         79.3019         7.50212 
        2.31326         78.8359         7.45335 
         2.3194         78.3849         7.40503 
        2.32553         78.0673         7.35722 
        2.33166         77.6626         7.30986 
         2.3378         77.1055         7.26285 
        2.34394         76.7553         7.21624 
        2.35007          76.411          7.1701 
        2.35619          76.065         7.12442 
        2.36233         75.5821         7.07903 
        2.36848         75.1788         7.03395 
        2.37462         74.7183         6.98935 
        2.38075         74.4914         6.94518 
        2.38689         74.0241         6.90136 
        2.39303         73.5589         6.85792 
        2.39916         73.2817          6.8149 
        2.40529         73.0367         6.77226 
        2.41143         72.4511         6.72995 
        2.41757         72.2408         6.68798 
         2.4237         71.8814         6.64645 
        2.42983         71.4216         6.60528 
        2.43598         71.0484         6.56434 
        2.44211         70.8547         6.52383 
        2.44823         70.3854         6.48374 
        2.45437          69.858         6.44389 
        2.46052         69.6077         6.40433 
        2.46665         69.3637         6.36518 
        2.47279         68.9029         6.32637 
        2.47892         68.6021         6.28786 
        2.48507         68.1787         6.24963 
         2.4912         67.9032          6.2118 
