# k  (h/Mpc)    Pcb(k)  (Mpc/h)^3    Pcb_linear(k)  (Mpc/h)^3
     0.00783031         19021.1         19316.9 
       0.013688         23709.5         23469.7 
       0.019231         23480.6         23444.2 
      0.0249154         20931.7         21443.4 
      0.0312784           18201           18457 
      0.0375637         15715.5         15749.3 
      0.0433917           13511         13819.5 
      0.0492413           12300         12444.3 
      0.0555754         10954.5         11395.1 
      0.0619321         10497.7         10542.6 
       0.067871         9394.39         9743.04 
      0.0738098         8567.52         8866.05 
      0.0800417         7549.69         7890.51 
      0.0862327         6782.64         6957.05 
      0.0921407         6181.12         6186.11 
      0.0982031         5540.35          5565.2 
       0.104506         5249.49         5101.01 
       0.110769         4891.78         4778.18 
       0.116806         4626.18         4535.86 
       0.122832         4391.93          4304.6 
       0.129052         4040.29         4039.44 
       0.135211         3788.46         3742.61 
       0.141259         3596.37         3435.47 
       0.147318          3369.1         3140.78 
       0.153489         3082.88         2879.85 
       0.159709         2925.39         2670.39 
       0.165845         2835.16         2514.44 
       0.171974         2694.08         2395.62 
       0.178125         2568.21         2294.98 
       0.184229         2450.86         2196.78 
        0.19034          2322.5         2089.98 
       0.196428         2262.38         1973.47 
       0.202534         2163.75         1851.83 
       0.208729         2063.81          1732.4 
       0.214876          1985.5         1625.89 
       0.220989         1916.69         1536.19 
       0.227147         1844.04         1462.15 
        0.23329         1774.59         1400.94 
       0.239377         1749.64         1347.45 
       0.245482         1644.08         1295.93 
       0.251667         1634.27         1242.46 
       0.257832         1567.88         1186.91 
       0.263955         1514.19          1130.8 
       0.270079         1462.95         1076.05 
        0.27624         1444.36         1024.79 
       0.282372         1385.88         979.096 
        0.28843         1382.09         939.405 
       0.294538          1314.7         904.102 
       0.300721         1305.56         871.637 
        0.30691         1258.14          840.87 
       0.313033         1232.11         810.916 
       0.319153         1214.89         781.023 
       0.325316         1174.66         751.054 
        0.33145          1149.6         721.982 
       0.337538         1127.02         694.492 
       0.343633         1105.59         668.863 
       0.349808          1068.9         644.991 
       0.355968         1060.78         623.111 
       0.362074         1052.15         602.966 
       0.368217         1017.67         583.746 
       0.374374         982.274         565.169 
       0.380519         985.033         547.058 
       0.386598         955.422          529.52 
       0.392688         951.435         512.451 
        0.39888         924.809         495.742 
       0.405048          915.06         479.913 
       0.411186         902.267         465.055 
       0.417313         883.237         451.062 
       0.423458         867.174         437.794 
       0.429607         857.964         425.155 
       0.435692         840.405         413.129 
       0.441815         832.585         401.414 
       0.447964         816.431         390.013 
       0.454126         810.872         378.939 
       0.460267         789.975         368.272 
       0.466387         779.861         358.056 
        0.47254         778.227         348.224 
       0.478662          767.85         338.867 
       0.484765         746.464         329.933 
       0.490885         742.054         321.341 
       0.497035         726.533         313.034 
       0.503198         722.391         304.997 
       0.509342          714.65         297.236 
       0.515458         711.073         289.754 
       0.521598         693.496         282.489 
       0.527764         681.989         275.442 
       0.533884          679.04         268.693 
           0.54         673.122         262.186 
       0.546137           665.8         255.887 
       0.552299         658.218         249.787 
       0.558452         652.322         243.908 
       0.564573         645.006         238.251 
       0.570708         637.545         232.758 
       0.576825         621.546         227.447 
       0.582926         624.215         222.311 
       0.589034         617.384         217.325 
       0.595184         611.963         212.462 
       0.601379         603.414         207.719 
       0.607522         594.767         203.165 
       0.613639          594.34         198.771 
       0.619772         583.336         194.499 
       0.625918         579.185         190.346 
       0.632068         571.835         186.312 
       0.638161         569.263         182.431 
         0.6443         560.359         178.634 
       0.650464         558.565         174.932 
       0.656582         552.712         171.362 
       0.662703         551.258         167.893 
       0.668861         542.465         164.501 
       0.675024         537.816         161.201 
       0.681124         534.131         158.027 
       0.687237         530.299         154.932 
       0.693381         523.085         151.907 
       0.699536         514.562         148.959 
       0.705665         514.227         146.102 
       0.711789         511.569         143.323 
       0.717957         507.037         140.598 
        0.72409         504.603          137.96 
       0.730186         497.205         135.406 
       0.736317         494.277         132.903 
       0.742472         491.043         130.455 
       0.748622         485.943         128.072 
        0.75476         478.793         125.754 
       0.760888         475.099         123.497 
       0.767043         474.724         121.288 
       0.773185         470.528         119.137 
       0.779291         465.463         117.052 
       0.785407         461.943         115.014 
       0.791564         457.368         113.012 
       0.797719         455.734         111.059 
       0.803834         449.813         109.165 
       0.809972         449.104         107.309 
       0.816124         447.551         105.492 
       0.822261         441.483         103.722 
       0.828378         438.851         101.999 
       0.834502         434.136         100.314 
       0.840667         431.063         98.6563 
       0.846816          429.19         97.0411 
       0.852925         426.205         95.4726 
       0.859047         424.186         93.9357 
       0.865192         418.724          92.428 
       0.871341         415.306         90.9526 
       0.877463          415.38         89.5164 
       0.883569         410.934          88.115 
       0.889708         408.566         86.7368 
       0.895864         407.819         85.3847 
       0.902008         403.967         84.0646 
       0.908149         398.144         82.7734 
       0.914301         396.674         81.5075 
       0.920448         394.961         80.2694 
       0.926574         388.813         79.0616 
       0.932687         388.093         77.8814 
       0.938823         384.662         76.7212 
       0.944975         384.663         75.5822 
       0.951105         380.476         74.4706 
       0.957225         377.947         73.3833 
       0.963368          373.55         72.3143 
       0.969511         372.673         71.2666 
       0.975621         370.763         70.2455 
       0.981748         368.018          69.242 
       0.987916         366.156         68.2518 
        0.99406         360.954         67.2849 
        1.00019         359.096         66.3388 
        1.00632         357.813         65.4119 
        1.01246         354.874         64.5015 
        1.01859           354.7         63.6099 
        1.02471         349.854         62.7365 
        1.03085           348.6         61.8765 
        1.03698           346.7         61.0346 
        1.04314         344.191         60.2049 
        1.04929         340.645         59.3926 
        1.05541         341.554         58.5986 
        1.06154         335.911         57.8173 
        1.06769         334.928         57.0491 
        1.07382         332.196         56.2975 
        1.07993         330.766         55.5612 
        1.08607         329.857         54.8352 
        1.09222         325.916         54.1214 
        1.09836         323.924         53.4213 
        1.10449         321.791         52.7344 
        1.11063         317.918          52.059 
        1.11677         318.826         51.3957 
         1.1229         315.908         50.7452 
        1.12903         314.167         50.1054 
        1.13518         310.972         49.4762 
        1.14131         309.626         48.8583 
        1.14745         307.971         48.2513 
        1.15359         306.027         47.6545 
        1.15973         304.183         47.0677 
        1.16584         301.706         46.4934 
        1.17197           301.5          45.928 
        1.17811         297.996         45.3702 
        1.18424         295.724         44.8234 
        1.19038          294.92         44.2841 
        1.19652         292.724         43.7539 
        1.20267         291.938         43.2324 
        1.20881         289.472         42.7195 
        1.21495         287.448         42.2159 
        1.22108         285.701         41.7205 
         1.2272         284.045         41.2342 
        1.23334         282.935         40.7547 
        1.23949         279.834         40.2817 
        1.24562          278.99         39.8175 
        1.25174         277.622         39.3614 
        1.25789         275.033         38.9111 
        1.26402         273.248         38.4687 
        1.27014         271.632         38.0343 
        1.27628         269.606         37.6053 
        1.28244          269.73         37.1822 
        1.28858         267.184         36.7662 
        1.29471         266.047         36.3575 
        1.30084         263.403         35.9554 
        1.30697         262.729         35.5588 
        1.31312         259.885         35.1676 
        1.31925         258.512         34.7836 
        1.32537         258.061         34.4057 
        1.33151         255.569         34.0321 
        1.33765          253.49         33.6643 
        1.34378         252.988         33.3027 
        1.34992         251.582         32.9461 
        1.35606         250.464          32.594 
         1.3622         247.964         32.2477 
        1.36833         246.805         31.9073 
        1.37445         245.138          31.572 
        1.38059         243.425         31.2406 
        1.38675         242.347         30.9131 
        1.39288           241.1         30.5916 
        1.39901         239.566         30.2749 
        1.40515         238.438         29.9619 
         1.4113         236.865         29.6536 
        1.41742         235.004         29.3507 
        1.42355         233.917         29.0516 
         1.4297         232.183         28.7557 
        1.43585         230.947         28.4641 
        1.44198         230.423         28.1777 
        1.44809         228.342         27.8957 
        1.45423         227.115         27.6166 
        1.46036          225.84         27.3418 
        1.46649         224.549         27.0707 
        1.47263         223.384          26.803 
        1.47877         221.627         26.5391 
        1.48491         219.545         26.2784 
        1.49104         219.103         26.0217 
        1.49718         217.319         25.7682 
        1.50333         216.765         25.5178 
        1.50947         215.186         25.2711 
         1.5156          213.49         25.0282 
        1.52172         212.733         24.7884 
        1.52787         210.971         24.5513 
          1.534         210.482         24.3176 
        1.54013         208.604         24.0872 
        1.54627         207.676         23.8594 
        1.55241         206.522         23.6345 
        1.55855         204.538         23.4128 
        1.56467         204.173         23.1946 
         1.5708         202.966         22.9786 
        1.57695         201.827          22.765 
        1.58308         200.396         22.5546 
        1.58922         198.896         22.3467 
        1.59535         197.533         22.1416 
         1.6015         196.662         21.9388 
        1.60764          195.78         21.7386 
        1.61376          194.74         21.5414 
        1.61989         193.663         21.3466 
        1.62604         192.183         21.1538 
        1.63218         191.448         20.9634 
        1.63831         189.842         20.7758 
        1.64444         189.002         20.5905 
        1.65059         188.153          20.407 
        1.65673         186.945         20.2259 
        1.66285         185.416         20.0476 
        1.66898         184.769         19.8713 
        1.67512         183.819         19.6968 
        1.68127         182.093         19.5243 
         1.6874         181.548         19.3542 
        1.69353         180.262         19.1863 
        1.69967             179         19.0199 
        1.70581         178.269         18.8556 
        1.71193         176.818         18.6939 
        1.71806         176.316         18.5337 
        1.72421         175.088         18.3751 
        1.73035         174.415         18.2185 
        1.73649         173.301         18.0638 
        1.74262         172.258         17.9111 
        1.74876         170.923           17.76 
        1.75489         170.337         17.6109 
        1.76101         168.756         17.4636 
        1.76715          168.45         17.3179 
        1.77329         167.211         17.1736 
        1.77943          166.55         17.0308 
        1.78557          165.37           16.89 
        1.79171         164.672         16.7507 
        1.79785         163.351         16.6129 
        1.80399         162.631         16.4768 
        1.81012         161.742         16.3423 
        1.81625         161.031         16.2094 
        1.82239         159.755         16.0778 
        1.82853         159.145         15.9477 
        1.83466         158.189         15.8192 
        1.84078         157.367         15.6923 
        1.84692           156.1         15.5665 
        1.85306         155.666          15.442 
         1.8592         154.648          15.319 
        1.86533         154.149         15.1974 
        1.87147         152.911          15.077 
        1.87761         151.873         14.9579 
        1.88375          151.14         14.8402 
        1.88988         149.681         14.7239 
        1.89601         149.601         14.6087 
        1.90215         148.677         14.4947 
        1.90829         147.516          14.382 
        1.91442         147.093         14.2705 
        1.92056         146.033         14.1603 
         1.9267         145.081         14.0511 
        1.93284         144.224          13.943 
        1.93897          143.73         13.8363 
        1.94509         142.979         13.7309 
        1.95123          142.18         13.6263 
        1.95737         141.223         13.5228 
        1.96349         140.585         13.4206 
        1.96964         139.594         13.3191 
        1.97578         138.752         13.2187 
        1.98192         138.054         13.1195 
        1.98805         137.458         13.0214 
        1.99419         136.504         12.9242 
        2.00033         135.877          12.828 
        2.00647         135.148         12.7328 
         2.0126         134.199         12.6387 
        2.01874         133.688         12.5454 
        2.02488         133.282          12.453 
        2.03101         131.914         12.3617 
        2.03714         131.493         12.2714 
        2.04328         130.547         12.1819 
        2.04941          130.08         12.0933 
        2.05554         129.039         12.0057 
        2.06167         128.604         11.9189 
        2.06781         127.625         11.8329 
        2.07396         127.231         11.7476 
        2.08009         126.306         11.6633 
        2.08622         125.395           11.58 
        2.09237         125.004         11.4973 
        2.09851         124.252         11.4154 
        2.10464         123.828         11.3344 
        2.11077          123.12         11.2543 
        2.11691         122.407         11.1748 
        2.12305          121.84         11.0961 
        2.12918         121.037         11.0183 
        2.13531         120.325         10.9413 
        2.14145         119.627         10.8648 
         2.1476         118.765         10.7889 
        2.15372         118.629         10.7142 
        2.15985         117.775         10.6401 
        2.16599         117.073         10.5665 
        2.17213         116.594         10.4937 
        2.17827         115.776         10.4216 
         2.1844         115.143         10.3502 
        2.19054         114.721         10.2794 
        2.19666         113.911         10.2095 
         2.2028         113.304         10.1401 
        2.20893         112.905         10.0713 
        2.21508         112.102         10.0031 
        2.22122         111.543         9.93553 
        2.22736         111.019          9.8687 
        2.23349         110.512          9.8025 
        2.23962         109.914         9.73688 
        2.24577         109.127         9.67181 
         2.2519          108.68         9.60742 
        2.25802          107.86         9.54372 
        2.26417         107.623         9.48042 
        2.27031         106.858         9.41764 
        2.27644         106.377         9.35561 
        2.28257         105.781         9.29415 
        2.28872         105.186         9.23312 
        2.29486         104.535         9.17265 
        2.30099         103.997         9.11285 
        2.30712         103.476         9.05356 
        2.31326         102.941         8.99469 
         2.3194         102.338         8.93639 
        2.32553         101.766         8.87869 
        2.33166         101.229         8.82154 
         2.3378         100.947          8.7648 
        2.34394         100.239         8.70855 
        2.35007         99.7063         8.65287 
        2.35619         99.2116         8.59775 
        2.36233         98.7782         8.54297 
        2.36848         98.1504         8.48856 
        2.37462         97.7521         8.43474 
        2.38075         97.1013         8.38144 
        2.38689         96.6326         8.32855 
        2.39303         96.0549         8.27613 
        2.39916         95.6424         8.22422 
        2.40529         95.4237         8.17276 
        2.41143         94.7352          8.1217 
        2.41757         94.1763         8.07105 
         2.4237         93.6496         8.02093 
        2.42983         93.1901         7.97125 
        2.43598         92.5936         7.92185 
        2.44211         92.2901         7.87295 
        2.44823         91.7274         7.82458 
        2.45437         91.2434         7.77648 
        2.46052          90.614         7.72874 
        2.46665         90.4254          7.6815 
        2.47279         89.8757         7.63466 
        2.47892         89.3738         7.58818 
        2.48507         88.9971         7.54205 
         2.4912         88.5491         7.49639 
