# k  (h/Mpc)    Pcb(k)  (Mpc/h)^3    Pcb_linear(k)  (Mpc/h)^3
     0.00783031         7621.51         7718.19 
       0.013688         9428.19         9380.91 
       0.019231         9389.86          9373.7 
      0.0249154         8459.61         8575.68 
      0.0312784         7341.91         7382.44 
      0.0375637         6312.49         6300.08 
      0.0433917         5472.95         5528.56 
      0.0492413         4961.82         4978.69 
      0.0555754         4471.34         4559.14 
      0.0619321         4234.03          4218.2 
       0.067871         3835.15          3898.4 
      0.0738098         3491.03         3547.57 
      0.0800417         3086.88         3157.29 
      0.0862327         2752.45         2783.82 
      0.0921407         2477.97         2475.36 
      0.0982031         2217.63         2226.93 
       0.104506         2078.49          2041.2 
       0.110769          1939.5         1912.04 
       0.116806         1825.79         1815.08 
       0.122832          1741.7         1722.55 
       0.129052         1611.18         1616.45 
       0.135211         1502.32         1497.67 
       0.141259         1406.06         1374.77 
       0.147318         1302.86         1256.85 
       0.153489         1189.65         1152.44 
       0.159709         1119.31         1068.62 
       0.165845          1072.5         1006.22 
       0.171974         1013.59          958.67 
       0.178125         970.538         918.398 
       0.184229         932.226         879.102 
        0.19034         869.471         836.366 
       0.196428         844.209         789.742 
       0.202534         808.322         741.065 
       0.208729         760.294          693.27 
       0.214876         716.368          650.65 
       0.220989         691.057         614.755 
       0.227147         655.467         585.124 
        0.23329         630.163         560.629 
       0.239377         615.816         539.226 
       0.245482         576.105         518.607 
       0.251667         568.497         497.209 
       0.257832         546.871         474.982 
       0.263955         525.735         452.528 
       0.270079         504.731         430.615 
        0.27624         495.637         410.104 
       0.282372         475.251         391.818 
        0.28843         460.804         375.935 
       0.294538         439.658         361.807 
       0.300721          435.86         348.815 
        0.30691         415.719         336.503 
       0.313033         406.396         324.516 
       0.319153         391.619         312.554 
       0.325316         380.824         300.561 
        0.33145         368.367         288.926 
       0.337538         362.833         277.926 
       0.343633         350.529         267.669 
       0.349808         339.013         258.116 
       0.355968         334.429          249.36 
       0.362074         326.478         241.298 
       0.368217         317.548         233.607 
       0.374374         305.915         226.172 
       0.380519         301.736         218.925 
       0.386598         293.996         211.907 
       0.392688         290.511         205.076 
        0.39888         282.589         198.389 
       0.405048         275.962         192.054 
       0.411186         270.129         186.109 
       0.417313         264.828         180.509 
       0.423458         259.526         175.199 
       0.429607         253.771         170.141 
       0.435692         246.509         165.329 
       0.441815         244.593          160.64 
       0.447964         240.008         156.078 
       0.454126         230.516         151.646 
       0.460267         227.847         147.378 
       0.466387         225.032         143.289 
        0.47254         219.993         139.355 
       0.478662         218.643          135.61 
       0.484765         211.936         132.035 
       0.490885         208.957         128.596 
       0.497035          206.01         125.272 
       0.503198         200.785         122.056 
       0.509342         198.334          118.95 
       0.515458         195.593         115.956 
       0.521598         192.413         113.048 
       0.527764         189.509         110.229 
       0.533884         186.808         107.527 
           0.54         183.829         104.923 
       0.546137         182.545         102.403 
       0.552299         179.104         99.9615 
       0.558452         176.478         97.6087 
       0.564573         173.517         95.3449 
       0.570708          170.49         93.1468 
       0.576825         168.361         91.0215 
       0.582926         165.632          88.966 
       0.589034         163.445         86.9707 
       0.595184         161.627         85.0245 
       0.601379         159.853         83.1266 
       0.607522         156.364         81.3042 
       0.613639         155.672         79.5457 
       0.619772         152.298         77.8361 
       0.625918         150.752          76.174 
       0.632068          149.05         74.5598 
       0.638161         147.798         73.0068 
         0.6443         145.674         71.4872 
       0.650464         144.168         70.0056 
       0.656582         142.369         68.5771 
       0.662703         140.367         67.1885 
       0.668861         138.412         65.8311 
       0.675024         136.833         64.5107 
       0.681124          135.89         63.2403 
       0.687237         133.471          62.002 
       0.693381         131.718         60.7915 
       0.699536          130.69         59.6114 
       0.705665         130.767         58.4681 
       0.711789         127.608          57.356 
       0.717957         127.153         56.2655 
        0.72409         125.296         55.2097 
       0.730186         123.315         54.1877 
       0.736317         122.783         53.1862 
       0.742472         121.807         52.2066 
       0.748622         120.637         51.2529 
        0.75476          119.48         50.3252 
       0.760888         117.817         49.4222 
       0.767043         117.038         48.5379 
       0.773185          115.77         47.6774 
       0.779291         114.302         46.8428 
       0.785407         113.567         46.0271 
       0.791564          112.47          45.226 
       0.797719         110.767         44.4444 
       0.803834         110.291         43.6864 
       0.809972         108.769         42.9436 
       0.816124         108.426         42.2165 
       0.822261         107.316         41.5084 
       0.828378         106.317         40.8188 
       0.834502          105.69         40.1444 
       0.840667         104.378         39.4811 
       0.846816         103.256         38.8347 
       0.852925         102.509          38.207 
       0.859047         101.246          37.592 
       0.865192          100.75         36.9886 
       0.871341         99.8712         36.3981 
       0.877463         98.7033         35.8234 
       0.883569         98.0716         35.2626 
       0.889708         97.3961          34.711 
       0.895864         96.5567           34.17 
       0.902008         95.7716         33.6417 
       0.908149         95.1938         33.1249 
       0.914301         94.1874         32.6183 
       0.920448         93.5618         32.1229 
       0.926574         92.8388         31.6395 
       0.932687         92.5449         31.1672 
       0.938823          91.085         30.7029 
       0.944975         90.4291         30.2471 
       0.951105         89.8282         29.8022 
       0.957225         88.7602         29.3671 
       0.963368         88.3966         28.9393 
       0.969511         88.0186         28.5201 
       0.975621          87.544         28.1114 
       0.981748          86.701         27.7098 
       0.987916         85.9202         27.3136 
        0.99406         85.3856         26.9266 
        1.00019         84.6118          26.548 
        1.00632         84.1907         26.1771 
        1.01246         83.4893         25.8127 
        1.01859         82.3609         25.4559 
        1.02471         82.5715         25.1064 
        1.03085         81.6647         24.7623 
        1.03698         81.1228         24.4253 
        1.04314         80.3274         24.0933 
        1.04929         79.8993         23.7682 
        1.05541         79.2244         23.4505 
        1.06154         78.9858         23.1378 
        1.06769         78.4644         22.8304 
        1.07382         78.1001         22.5296 
        1.07993         77.5645          22.235 
        1.08607         76.8888         21.9444 
        1.09222         76.5047         21.6587 
        1.09836         75.9353         21.3786 
        1.10449         75.4801         21.1037 
        1.11063         74.9122         20.8334 
        1.11677         74.4949         20.5679 
         1.1229         73.8318         20.3076 
        1.12903         73.0306         20.0516 
        1.13518         73.2993         19.7998 
        1.14131          72.758         19.5525 
        1.14745         71.8795         19.3096 
        1.15359         71.6817         19.0708 
        1.15973         71.1812         18.8359 
        1.16584         70.6959         18.6061 
        1.17197         70.2871         18.3798 
        1.17811         69.9207         18.1566 
        1.18424         69.3106         17.9378 
        1.19038         68.9017          17.722 
        1.19652         68.6635         17.5098 
        1.20267         68.0796         17.3011 
        1.20881         67.7642         17.0959 
        1.21495         67.2018         16.8943 
        1.22108         66.8728         16.6961 
         1.2272         66.2802         16.5015 
        1.23334         66.0335         16.3096 
        1.23949         65.7804         16.1203 
        1.24562         65.3503         15.9345 
        1.25174         65.0177          15.752 
        1.25789         64.6967         15.5718 
        1.26402          64.249         15.3947 
        1.27014         63.6027         15.2209 
        1.27628         63.4743         15.0492 
        1.28244         62.9506         14.8799 
        1.28858          62.718         14.7134 
        1.29471         62.4674         14.5498 
        1.30084         62.0504         14.3889 
        1.30697         61.6316         14.2302 
        1.31312         61.2497         14.0737 
        1.31925         61.0975           13.92 
        1.32537         60.7669         13.7688 
        1.33151         60.1727         13.6193 
        1.33765         59.9738         13.4721 
        1.34378         59.5913         13.3273 
        1.34992         59.2615         13.1846 
        1.35606         58.9373         13.0437 
         1.3622         58.5029         12.9052 
        1.36833         58.3059         12.7689 
        1.37445         58.0497         12.6348 
        1.38059           57.61         12.5021 
        1.38675         57.3049         12.3711 
        1.39288         56.9844         12.2424 
        1.39901         56.7995         12.1157 
        1.40515         56.4734         11.9904 
         1.4113         56.2142          11.867 
        1.41742          55.952         11.7458 
        1.42355         55.5062         11.6261 
         1.4297         55.2819         11.5077 
        1.43585         54.9585          11.391 
        1.44198         54.7064         11.2764 
        1.44809         54.4716         11.1635 
        1.45423         54.2224         11.0518 
        1.46036         53.9527         10.9419 
        1.46649         53.6239         10.8334 
        1.47263         53.2814         10.7263 
        1.47877         53.1318         10.6207 
        1.48491         52.9711         10.5163 
        1.49104          52.515         10.4136 
        1.49718          52.081         10.3121 
        1.50333         51.9803         10.2119 
        1.50947         51.7433         10.1132 
         1.5156           51.42          10.016 
        1.52172         51.2465         9.92002 
        1.52787         51.1107         9.82514 
          1.534         50.7653         9.73161 
        1.54013         50.4678         9.63941 
        1.54627         50.2861         9.54824 
        1.55241         49.9256         9.45824 
        1.55855         49.6545         9.36953 
        1.56467         49.2707          9.2822 
         1.5708         49.3196         9.19575 
        1.57695         49.0107         9.11028 
        1.58308         48.7436         9.02609 
        1.58922         48.7144         8.94291 
        1.59535         48.4261         8.86082 
         1.6015         47.9894         8.77964 
        1.60764         47.8453         8.69953 
        1.61376         47.6205         8.62064 
        1.61989          47.266         8.54267 
        1.62604         47.1857         8.46549 
        1.63218         47.0272         8.38931 
        1.63831         46.7549         8.31425 
        1.64444         46.5019         8.24009 
        1.65059          46.167         8.16665 
        1.65673         45.9944         8.09419 
        1.66285         45.7696         8.02281 
        1.66898         45.5391         7.95227 
        1.67512          45.304         7.88245 
        1.68127         45.0449          7.8134 
         1.6874         44.9534         7.74533 
        1.69353         44.6558         7.67812 
        1.69967          44.462         7.61155 
        1.70581         44.3997          7.5458 
        1.71193         44.1305         7.48108 
        1.71806          43.764         7.41698 
        1.72421         43.6442          7.3535 
        1.73035         43.4031         7.29085 
        1.73649         43.0878         7.22894 
        1.74262         43.0517          7.1678 
        1.74876         42.9302         7.10733 
        1.75489         42.6269         7.04769 
        1.76101         42.4576         6.98875 
        1.76715         42.2318         6.93041 
        1.77329         42.0267         6.87266 
        1.77943         41.8826         6.81555 
        1.78557         41.7002         6.75917 
        1.79171         41.4324         6.70343 
        1.79785         41.2429          6.6483 
        1.80399         41.1247         6.59381 
        1.81012         40.9568            6.54 
        1.81625         40.5987         6.48682 
        1.82239         40.5163         6.43415 
        1.82853         40.2067          6.3821 
        1.83466          40.147         6.33067 
        1.84078         39.8179         6.27986 
        1.84692         39.7016         6.22953 
        1.85306         39.5144         6.17969 
         1.8592         39.3062         6.13048 
        1.86533         39.1504         6.08183 
        1.87147         39.0279         6.03365 
        1.87761         38.8882         5.98597 
        1.88375         38.6538         5.93887 
        1.88988         38.6071         5.89232 
        1.89601         38.3201         5.84625 
        1.90215         38.1786         5.80063 
        1.90829         38.0927         5.75553 
        1.91442         37.8431          5.7109 
        1.92056         37.7062         5.66678 
         1.9267         37.4157         5.62309 
        1.93284         37.2639         5.57983 
        1.93897         37.1754         5.53712 
        1.94509         36.9359         5.49494 
        1.95123         36.8474          5.4531 
        1.95737         36.6106         5.41166 
        1.96349         36.4664         5.37076 
        1.96964         36.3144         5.33017 
        1.97578         36.1685         5.28998 
        1.98192         35.9732         5.25029 
        1.98805         35.8467           5.211 
        1.99419         35.6013         5.17211 
        2.00033         35.4816          5.1336 
        2.00647         35.3311          5.0955 
         2.0126         35.1754         5.05785 
        2.01874         35.0491         5.02052 
        2.02488         34.9494         4.98354 
        2.03101         34.6965           4.947 
        2.03714         34.5612         4.91086 
        2.04328         34.3816         4.87504 
        2.04941         34.2598         4.83961 
        2.05554         34.0602         4.80455 
        2.06167         33.9815          4.7698 
        2.06781          33.797         4.73539 
        2.07396         33.6387         4.70126 
        2.08009         33.5409         4.66754 
        2.08622         33.3461         4.63418 
        2.09237         33.1874         4.60108 
        2.09851         33.0229          4.5683 
        2.10464         32.9549         4.53589 
        2.11077         32.7694         4.50384 
        2.11691         32.6378         4.47203 
        2.12305         32.4885         4.44052 
        2.12918          32.433          4.4094 
        2.13531         32.2205         4.37856 
        2.14145         32.1556         4.34796 
         2.1476         31.9333         4.31761 
        2.15372         31.7681          4.2877 
        2.15985          31.665         4.25805 
        2.16599         31.6259         4.22859 
        2.17213         31.4947         4.19945 
        2.17827         31.2127         4.17059 
         2.1844         31.1099         4.14202 
        2.19054          30.969         4.11371 
        2.19666         30.8666         4.08571 
         2.2028          30.735         4.05795 
        2.20893         30.6404         4.03043 
        2.21508         30.4972         4.00313 
        2.22122         30.2952         3.97608 
        2.22736         30.2305         3.94934 
        2.23349         30.1001         3.92285 
        2.23962         29.9396         3.89659 
        2.24577         29.7935         3.87055 
         2.2519         29.7038         3.84478 
        2.25802         29.5648         3.81929 
        2.26417         29.4675         3.79396 
        2.27031          29.373         3.76883 
        2.27644         29.1635         3.74401 
        2.28257         29.0719         3.71941 
        2.28872         28.9321         3.69499 
        2.29486           28.88         3.67079 
        2.30099         28.7353         3.64686 
        2.30712         28.6334         3.62313 
        2.31326         28.5498         3.59957 
         2.3194         28.3958         3.57624 
        2.32553          28.231         3.55315 
        2.33166         28.1115         3.53028 
         2.3378         27.9937         3.50757 
        2.34394         27.8512         3.48506 
        2.35007         27.7438         3.46278 
        2.35619         27.6943         3.44072 
        2.36233         27.6019          3.4188 
        2.36848         27.3905         3.39703 
        2.37462         27.3197         3.37549 
        2.38075           27.21         3.35416 
        2.38689         27.1369         3.33299 
        2.39303         26.9666         3.31201 
        2.39916         26.8205         3.29124 
        2.40529         26.6987         3.27064 
        2.41143         26.6214         3.25021 
        2.41757         26.5348         3.22994 
         2.4237         26.3907         3.20989 
        2.42983          26.301            3.19 
        2.43598         26.1853         3.17023 
        2.44211         26.0726         3.15066 
        2.44823         25.9261         3.13131 
        2.45437         25.8727         3.11206 
        2.46052         25.7479         3.09295 
        2.46665         25.6771         3.07405 
        2.47279         25.5535          3.0553 
        2.47892         25.4257          3.0367 
        2.48507         25.3265         3.01824 
         2.4912         25.2592         2.99997 
