# k  (h/Mpc)    Pcb(k)  (Mpc/h)^3    Pcb_linear(k)  (Mpc/h)^3
     0.00783031         1561.28          1577.4 
       0.013688         1916.86          1918.1 
       0.019231         1918.29         1917.47 
      0.0249154         1744.37         1754.84 
      0.0312784         1509.79         1511.01 
      0.0375637         1293.37         1289.64 
      0.0433917         1129.51          1131.8 
      0.0492413         1020.08          1019.3 
      0.0555754         927.841         933.458 
      0.0619321         867.518         863.687 
       0.067871         794.599         798.228 
      0.0738098         722.908         726.411 
      0.0800417         641.618         646.508 
      0.0862327         568.598         570.043 
      0.0921407         507.431         506.887 
      0.0982031          455.12         456.019 
       0.104506          421.23         417.991 
       0.110769         393.821         391.544 
       0.116806         371.371         371.692 
       0.122832         354.085         352.745 
       0.129052         330.116         331.019 
       0.135211         306.132         306.698 
       0.141259         283.135         281.531 
       0.147318         260.443         257.383 
       0.153489         238.094         236.002 
       0.159709         221.532         218.838 
       0.165845          210.53         206.059 
       0.171974         198.776         196.322 
       0.178125         190.788         188.076 
       0.184229         183.174         180.029 
        0.19034         172.281         171.277 
       0.196428         164.523         161.729 
       0.202534         156.168         151.761 
       0.208729         145.734         141.974 
       0.214876         136.333         133.246 
       0.220989          130.45         125.895 
       0.227147         123.034         119.827 
        0.23329         118.039         114.811 
       0.239377         114.158         110.428 
       0.245482         108.612         106.205 
       0.251667         105.527         101.823 
       0.257832         100.982         97.2714 
       0.263955         96.4529          92.673 
       0.270079         92.1296         88.1856 
        0.27624         88.8686         83.9852 
       0.282372         85.1128         80.2405 
        0.28843         81.4113         76.9878 
       0.294538         78.3329         74.0946 
       0.300721         76.3683          71.434 
        0.30691         73.1091         68.9126 
       0.313033         70.7445         66.4578 
       0.319153         67.4112          64.008 
       0.325316         66.0656          61.552 
        0.33145         63.4016         59.1694 
       0.337538         61.4595         56.9166 
       0.343633         59.1377         54.8162 
       0.349808         57.3464         52.8598 
       0.355968         55.6222         51.0667 
       0.362074         53.8312         49.4157 
       0.368217         52.2396         47.8406 
       0.374374         50.5658         46.3181 
       0.380519         49.2492         44.8339 
       0.386598         47.8524         43.3966 
       0.392688         46.7025         41.9977 
        0.39888         45.2195         40.6284 
       0.405048         44.0411          39.331 
       0.411186         42.9153         38.1134 
       0.417313          41.488         36.9666 
       0.423458         40.4202         35.8793 
       0.429607         39.2973         34.8435 
       0.435692         38.1047         33.8579 
       0.441815         37.3707         32.8978 
       0.447964         36.6825         31.9634 
       0.454126          35.258         31.0558 
       0.460267          34.577         30.1817 
       0.466387         33.5201         29.3444 
        0.47254         32.9526         28.5387 
       0.478662         32.3271         27.7718 
       0.484765         31.3522         27.0396 
       0.490885         30.6211         26.3355 
       0.497035         30.2054         25.6546 
       0.503198         29.3889          24.996 
       0.509342         28.6411           24.36 
       0.515458         28.0029         23.7468 
       0.521598         27.4921         23.1514 
       0.527764         26.8649         22.5739 
       0.533884          26.397         22.0207 
           0.54         25.8033         21.4874 
       0.546137         25.3502         20.9712 
       0.552299         24.9073         20.4713 
       0.558452         24.1347         19.9895 
       0.564573         23.7952         19.5258 
       0.570708         23.3641         19.0757 
       0.576825         22.7677         18.6405 
       0.582926         22.3491         18.2195 
       0.589034         21.7497         17.8109 
       0.595184         21.4503         17.4123 
       0.601379         21.0129         17.0237 
       0.607522         20.6649         16.6504 
       0.613639         20.4214         16.2903 
       0.619772          19.876         15.9402 
       0.625918         19.7436         15.5998 
       0.632068         19.4116         15.2692 
       0.638161         18.9637         14.9512 
         0.6443         18.5774           14.64 
       0.650464           18.23         14.3366 
       0.656582         18.0976          14.044 
       0.662703         17.7526         13.7597 
       0.668861         17.4179         13.4817 
       0.675024          17.089         13.2113 
       0.681124         16.7945         12.9511 
       0.687237          16.525         12.6975 
       0.693381         16.3382         12.4496 
       0.699536         15.9007         12.2079 
       0.705665         15.7845         11.9738 
       0.711789         15.4809          11.746 
       0.717957         15.2436         11.5227 
        0.72409         14.9993         11.3065 
       0.730186         14.7954         11.0972 
       0.736317         14.6301         10.8921 
       0.742472         14.3861         10.6915 
       0.748622         14.1903         10.4962 
        0.75476         13.9097         10.3062 
       0.760888         13.7301         10.1213 
       0.767043         13.5626         9.94018 
       0.773185         13.2969         9.76394 
       0.779291         13.2063         9.59302 
       0.785407         13.0134         9.42599 
       0.791564         12.7945         9.26191 
       0.797719         12.5421         9.10186 
       0.803834         12.4883         8.94663 
       0.809972          12.366          8.7945 
       0.816124         12.0882         8.64561 
       0.822261         11.9348         8.50059 
       0.828378         11.7945         8.35936 
       0.834502         11.6912         8.22126 
       0.840667         11.4952         8.08541 
       0.846816         11.2942         7.95303 
       0.852925         11.1916         7.82449 
       0.859047         11.0554         7.69853 
       0.865192         10.9558         7.57497 
       0.871341         10.8439         7.45405 
       0.877463         10.6594         7.33634 
       0.883569         10.5014          7.2215 
       0.889708         10.3327         7.10854 
       0.895864         10.2523         6.99774 
       0.902008         10.1555         6.88954 
       0.908149         10.0421         6.78372 
       0.914301         9.92174         6.67997 
       0.920448         9.75988         6.57851 
       0.926574         9.65175         6.47952 
       0.932687         9.55619          6.3828 
       0.938823         9.42707         6.28772 
       0.944975         9.30703         6.19437 
       0.951105         9.22224         6.10326 
       0.957225         9.16554         6.01416 
       0.963368         9.04681         5.92654 
       0.969511         8.94982         5.84068 
       0.975621           8.844           5.757 
       0.981748         8.74469         5.67475 
       0.987916         8.67114          5.5936 
        0.99406         8.53446         5.51436 
        1.00019         8.40945         5.43682 
        1.00632            8.39         5.36086 
        1.01246         8.28992         5.28624 
        1.01859         8.16869         5.21318 
        1.02471         8.10932         5.14159 
        1.03085           8.024         5.07111 
        1.03698         7.91066         5.00211 
        1.04314         7.85873         4.93411 
        1.04929          7.7572         4.86754 
        1.05541         7.66719         4.80247 
        1.06154         7.60892         4.73844 
        1.06769         7.57136         4.67549 
        1.07382         7.44986         4.61389 
        1.07993         7.38089         4.55354 
        1.08607         7.32842         4.49404 
        1.09222          7.2558         4.43554 
        1.09836          7.1755         4.37816 
        1.10449         7.10856         4.32187 
        1.11063         7.03766         4.26651 
        1.11677         6.99319         4.21215 
         1.1229         6.93333         4.15884 
        1.12903         6.84913         4.10641 
        1.13518         6.77267         4.05484 
        1.14131         6.70597          4.0042 
        1.14745         6.63678         3.95445 
        1.15359          6.5977         3.90555 
        1.15973         6.53212         3.85745 
        1.16584          6.4472         3.81039 
        1.17197         6.39983         3.76405 
        1.17811         6.36794         3.71834 
        1.18424         6.30824         3.67352 
        1.19038         6.27294         3.62932 
        1.19652           6.201         3.58587 
        1.20267          6.1337         3.54313 
        1.20881         6.10821          3.5011 
        1.21495          6.0511         3.45982 
        1.22108         5.98265         3.41922 
         1.2272         5.94757         3.37937 
        1.23334         5.87422         3.34007 
        1.23949         5.82361          3.3013 
        1.24562         5.79531         3.26326 
        1.25174         5.73671         3.22588 
        1.25789          5.6965         3.18898 
        1.26402         5.65732         3.15272 
        1.27014         5.60553         3.11712 
        1.27628         5.55109         3.08196 
        1.28244         5.49012         3.04728 
        1.28858         5.48006         3.01319 
        1.29471         5.41546         2.97969 
        1.30084         5.36378         2.94674 
        1.30697         5.36401         2.91424 
        1.31312          5.2663         2.88218 
        1.31925         5.23919         2.85071 
        1.32537         5.19761         2.81974 
        1.33151         5.17908         2.78912 
        1.33765         5.11359         2.75897 
        1.34378         5.07994         2.72933 
        1.34992         5.05284         2.70011 
        1.35606         4.99481         2.67126 
         1.3622         4.97315         2.64288 
        1.36833          4.9314         2.61498 
        1.37445         4.89564          2.5875 
        1.38059         4.87876         2.56033 
        1.38675         4.83832          2.5335 
        1.39288         4.80188         2.50715 
        1.39901         4.74677         2.48119 
        1.40515         4.72052         2.45554 
         1.4113         4.68961         2.43027 
        1.41742         4.65728         2.40545 
        1.42355         4.61471         2.38094 
         1.4297         4.58345         2.35669 
        1.43585         4.56423         2.33279 
        1.44198         4.54067         2.30931 
        1.44809         4.49318         2.28621 
        1.45423         4.45812         2.26333 
        1.46036         4.42271         2.24081 
        1.46649         4.39476         2.21859 
        1.47263         4.35949         2.19666 
        1.47877         4.32824         2.17503 
        1.48491         4.30226         2.15366 
        1.49104         4.27648         2.13262 
        1.49718         4.24817         2.11185 
        1.50333         4.22386         2.09132 
        1.50947         4.18874         2.07111 
         1.5156         4.16222         2.05119 
        1.52172         4.13786         2.03154 
        1.52787         4.11341         2.01211 
          1.534         4.07698         1.99296 
        1.54013         4.06044         1.97408 
        1.54627         4.02121          1.9554 
        1.55241          3.9954         1.93697 
        1.55855          3.9798         1.91881 
        1.56467         3.95189         1.90092 
         1.5708          3.9264         1.88322 
        1.57695         3.89223         1.86571 
        1.58308         3.86453         1.84847 
        1.58922         3.85536         1.83144 
        1.59535         3.83027         1.81463 
         1.6015         3.79959           1.798 
        1.60764         3.77565          1.7816 
        1.61376         3.75595         1.76544 
        1.61989         3.73218         1.74947 
        1.62604         3.70474         1.73367 
        1.63218         3.69578         1.71807 
        1.63831         3.66569         1.70269 
        1.64444         3.64404         1.68751 
        1.65059         3.61068         1.67247 
        1.65673         3.60412         1.65763 
        1.66285         3.56987         1.64301 
        1.66898         3.55324         1.62856 
        1.67512         3.52824         1.61426 
        1.68127          3.5086         1.60012 
         1.6874         3.49767         1.58618 
        1.69353           3.461         1.57242 
        1.69967         3.44847         1.55879 
        1.70581         3.43236         1.54532 
        1.71193         3.40937         1.53207 
        1.71806         3.39392         1.51894 
        1.72421         3.37169         1.50594 
        1.73035         3.35675         1.49311 
        1.73649         3.33293         1.48043 
        1.74262         3.31135         1.46791 
        1.74876          3.3015         1.45553 
        1.75489         3.27993         1.44331 
        1.76101         3.25328         1.43124 
        1.76715         3.24377         1.41929 
        1.77329         3.22878         1.40747 
        1.77943         3.19525         1.39577 
        1.78557         3.18778         1.38423 
        1.79171         3.17053         1.37281 
        1.79785         3.15028         1.36152 
        1.80399         3.13259         1.35036 
        1.81012         3.11882         1.33934 
        1.81625          3.1005         1.32845 
        1.82239         3.08262         1.31766 
        1.82853         3.06211           1.307 
        1.83466         3.05527         1.29647 
        1.84078         3.03808         1.28607 
        1.84692         3.02559         1.27576 
        1.85306         2.99921         1.26555 
         1.8592         2.98154         1.25547 
        1.86533         2.96852         1.24551 
        1.87147         2.95876         1.23564 
        1.87761         2.93865         1.22588 
        1.88375         2.92313         1.21623 
        1.88988         2.90705          1.2067 
        1.89601         2.89289         1.19727 
        1.90215          2.8767         1.18792 
        1.90829         2.85789         1.17869 
        1.91442         2.85032         1.16955 
        1.92056         2.83063         1.16051 
         1.9267         2.81873         1.15157 
        1.93284          2.8075         1.14271 
        1.93897         2.79292         1.13396 
        1.94509         2.77396         1.12532 
        1.95123         2.75929         1.11675 
        1.95737         2.74285         1.10827 
        1.96349         2.73604         1.09989 
        1.96964         2.72696         1.09158 
        1.97578           2.704         1.08335 
        1.98192         2.69549         1.07522 
        1.98805         2.68344         1.06717 
        1.99419         2.66983         1.05921 
        2.00033         2.66076         1.05132 
        2.00647         2.64315         1.04352 
         2.0126         2.63458         1.03581 
        2.01874         2.61241         1.02816 
        2.02488         2.60693         1.02059 
        2.03101         2.58611         1.01311 
        2.03714         2.57793         1.00571 
        2.04328         2.56622         0.99837 
        2.04941         2.54726        0.991114 
        2.05554         2.54189        0.983935 
        2.06167         2.53196        0.976818 
        2.06781         2.52024         0.96977 
        2.07396         2.50963        0.962782 
        2.08009         2.49619        0.955875 
        2.08622         2.48162        0.949043 
        2.09237         2.47211        0.942265 
        2.09851         2.46053        0.935552 
        2.10464         2.45376        0.928916 
        2.11077         2.43801        0.922352 
        2.11691         2.42749        0.915837 
        2.12305         2.41907        0.909385 
        2.12918         2.41068         0.90301 
        2.13531         2.39754        0.896696 
        2.14145          2.3859        0.890428 
         2.1476         2.37119        0.884213 
        2.15372         2.36157        0.878088 
        2.15985         2.35291        0.872016 
        2.16599         2.34305        0.865983 
        2.17213         2.32721        0.860015 
        2.17827         2.32171        0.854104 
         2.1844         2.31117        0.848254 
        2.19054          2.3032        0.842457 
        2.19666         2.29004        0.836722 
         2.2028         2.27908        0.831036 
        2.20893         2.27109          0.8254 
        2.21508          2.2597        0.819811 
        2.22122         2.24877        0.814271 
        2.22736          2.2396        0.808794 
        2.23349         2.23278        0.803369 
        2.23962         2.22003        0.797991 
        2.24577         2.21336        0.792658 
         2.2519         2.20266        0.787381 
        2.25802         2.19568         0.78216 
        2.26417         2.18749        0.776973 
        2.27031         2.17525        0.771827 
        2.27644         2.16748        0.766744 
        2.28257         2.15524        0.761706 
        2.28872         2.15017        0.756705 
        2.29486         2.13794        0.751749 
        2.30099         2.12871        0.746848 
        2.30712         2.11827        0.741989 
        2.31326         2.11248        0.737165 
         2.3194         2.10372        0.732386 
        2.32553         2.09563        0.727658 
        2.33166         2.08718        0.722973 
         2.3378         2.07852        0.718324 
        2.34394         2.06929        0.713714 
        2.35007         2.06031         0.70915 
        2.35619         2.05526        0.704633 
        2.36233         2.04509        0.700144 
        2.36848         2.03555        0.695684 
        2.37462         2.03014        0.691274 
        2.38075         2.01967        0.686905 
        2.38689         2.01438        0.682571 
        2.39303         2.00421        0.678275 
        2.39916         1.99693         0.67402 
        2.40529         1.98911        0.669802 
        2.41143         1.97956        0.665618 
        2.41757         1.97227        0.661467 
         2.4237         1.96763         0.65736 
        2.42983         1.95242        0.653287 
        2.43598         1.95336        0.649239 
        2.44211          1.9408        0.645232 
        2.44823         1.93627        0.641267 
        2.45437         1.92678        0.637325 
        2.46052         1.92177        0.633413 
        2.46665         1.91354        0.629541 
        2.47279         1.90468        0.625702 
        2.47892           1.899        0.621893 
        2.48507         1.89219        0.618113 
         2.4912         1.87989        0.614371 
