# k  (h/Mpc)    Pcb(k)  (Mpc/h)^3    Pcb_linear(k)  (Mpc/h)^3
     0.00783031         6539.57         6620.31 
       0.013688         8081.74         8046.96 
       0.019231         8054.35         8041.19 
      0.0249154         7265.78         7356.88 
      0.0312784         6303.83         6333.38 
      0.0375637         5417.22          5404.9 
      0.0433917         4701.56         4743.05 
      0.0492413         4260.23         4271.35 
      0.0555754         3844.38         3911.43 
      0.0619321         3634.37         3618.94 
       0.067871         3297.06         3344.59 
      0.0738098         3000.81         3043.61 
      0.0800417         2654.71         2708.77 
      0.0862327            2365         2388.37 
      0.0921407         2126.21         2123.73 
      0.0982031         1903.04         1910.59 
       0.104506         1780.75         1751.25 
       0.110769         1662.11         1640.43 
       0.116806         1564.41         1557.25 
       0.122832         1492.81         1477.86 
       0.129052         1382.27         1386.84 
       0.135211         1287.77         1284.93 
       0.141259          1203.2         1179.49 
       0.147318         1113.66         1078.32 
       0.153489         1016.88         988.738 
       0.159709         955.279         916.827 
       0.165845          914.29         863.287 
       0.171974          863.54         822.495 
       0.178125         827.394         787.944 
       0.184229         794.906          754.23 
        0.19034         741.448         717.564 
       0.196428           718.7         677.563 
       0.202534         687.692         635.801 
       0.208729          645.87         594.795 
       0.214876         607.487         558.229 
       0.220989         585.648         527.433 
       0.227147         554.606         502.011 
        0.23329         533.132         480.996 
       0.239377         520.338         462.632 
       0.245482         487.383         444.942 
       0.251667         480.142         426.584 
       0.257832         461.942         407.514 
       0.263955         443.534         388.249 
       0.270079         425.551         369.449 
        0.27624         417.023         351.851 
       0.282372         399.939         336.163 
        0.28843         386.581         322.536 
       0.294538         369.436         310.415 
       0.300721         365.539         299.269 
        0.30691         348.674         288.705 
       0.313033         340.379         278.421 
       0.319153         327.087         268.157 
       0.325316         318.558         257.868 
        0.33145         307.654         247.886 
       0.337538          302.73         238.448 
       0.343633         292.307         229.649 
       0.349808         282.834         221.453 
       0.355968         278.343          213.94 
       0.362074          271.16         207.024 
       0.368217          263.72         200.425 
       0.374374         254.676         194.046 
       0.380519         250.473         187.828 
       0.386598         243.923         181.807 
       0.392688         240.519         175.946 
        0.39888         234.041         170.209 
       0.405048         228.452         164.774 
       0.411186         223.436         159.673 
       0.417313         218.744         154.869 
       0.423458         214.214         150.314 
       0.429607         209.232         145.974 
       0.435692         202.906         141.845 
       0.441815         201.333         137.823 
       0.447964         197.684         133.908 
       0.454126         189.339         130.106 
       0.460267         187.222         126.444 
       0.466387         184.675         122.936 
        0.47254         180.658          119.56 
       0.478662         179.141         116.348 
       0.484765         173.811          113.28 
       0.490885         171.135          110.33 
       0.497035         168.843         107.478 
       0.503198         164.285         104.719 
       0.509342         161.836         102.054 
       0.515458          159.54         99.4853 
       0.521598         157.152         96.9908 
       0.527764         154.764         94.5714 
       0.533884          152.35          92.254 
           0.54         149.749         90.0199 
       0.546137         148.526         87.8571 
       0.552299         145.943         85.7628 
       0.558452         143.264         83.7441 
       0.564573         140.768         81.8019 
       0.570708         138.574          79.916 
       0.576825         136.773         78.0926 
       0.582926         134.312          76.329 
       0.589034         132.276         74.6172 
       0.595184         130.745         72.9474 
       0.601379          129.26         71.3191 
       0.607522          126.26         69.7556 
       0.613639          125.84         68.2468 
       0.619772         123.061         66.7801 
       0.625918         121.745         65.3541 
       0.632068         120.397         63.9691 
       0.638161         119.146         62.6368 
         0.6443         117.504          61.333 
       0.650464         116.183         60.0619 
       0.656582         114.612         58.8362 
       0.662703         112.707         57.6449 
       0.668861         111.341         56.4803 
       0.675024         110.068         55.3475 
       0.681124         109.016         54.2575 
       0.687237         107.046         53.1951 
       0.693381         105.774         52.1565 
       0.699536         104.715         51.1441 
       0.705665         104.998         50.1631 
       0.711789         102.212          49.209 
       0.717957         101.727         48.2735 
        0.72409         100.238         47.3676 
       0.730186         98.5846         46.4908 
       0.736317         98.3182         45.6315 
       0.742472         97.3061         44.7911 
       0.748622         96.3599         43.9728 
        0.75476         95.3518         43.1769 
       0.760888         94.0245         42.4021 
       0.767043         93.2328         41.6435 
       0.773185         92.1742         40.9052 
       0.779291         91.2834         40.1891 
       0.785407         90.5593         39.4893 
       0.791564         89.5532          38.802 
       0.797719         88.2162         38.1314 
       0.803834         87.8608         37.4811 
       0.809972          86.434         36.8438 
       0.816124         85.9969           36.22 
       0.822261         85.2569         35.6125 
       0.828378         84.4954         35.0208 
       0.834502         83.7462         34.4422 
       0.840667         82.8883         33.8731 
       0.846816         81.8967         33.3185 
       0.852925         81.2345           32.78 
       0.859047         80.2006         32.2523 
       0.865192         79.8232         31.7346 
       0.871341         79.2474         31.2281 
       0.877463         78.0484         30.7349 
       0.883569         77.5702         30.2538 
       0.889708         77.1051         29.7806 
       0.895864         76.4351         29.3164 
       0.902008         75.7496         28.8631 
       0.908149         75.2392         28.4198 
       0.914301         74.4864         27.9851 
       0.920448         73.9407         27.5601 
       0.926574         73.2777         27.1454 
       0.932687         72.9637         26.7402 
       0.938823         71.8041         26.3418 
       0.944975          71.469         25.9507 
       0.951105         70.8413         25.5691 
       0.957225          69.973         25.1958 
       0.963368         69.8338         24.8287 
       0.969511         69.3805          24.469 
       0.975621         68.9221         24.1184 
       0.981748          68.184         23.7739 
       0.987916         67.6845         23.4339 
        0.99406         67.2788         23.1019 
        1.00019         66.5234         22.7771 
        1.00632         66.2474         22.4588 
        1.01246         65.6544         22.1462 
        1.01859         64.7761         21.8401 
        1.02471         64.9878         21.5402 
        1.03085         64.2408          21.245 
        1.03698         63.7304         20.9559 
        1.04314         63.1116          20.671 
        1.04929         62.7955         20.3921 
        1.05541         62.1823         20.1195 
        1.06154          62.096         19.8513 
        1.06769         61.5315         19.5875 
        1.07382         61.2443         19.3295 
        1.07993         60.9013         19.0767 
        1.08607         60.3079         18.8274 
        1.09222          60.015         18.5823 
        1.09836         59.5824         18.3419 
        1.10449         59.1559         18.1061 
        1.11063         58.6213         17.8742 
        1.11677         58.2849         17.6464 
         1.1229         57.9294         17.4231 
        1.12903         57.1528         17.2034 
        1.13518         57.3664         16.9874 
        1.14131         57.0037         16.7752 
        1.14745         56.2269         16.5668 
        1.15359         56.1578         16.3619 
        1.15973         55.5938         16.1604 
        1.16584         55.2661         15.9633 
        1.17197         54.9712         15.7691 
        1.17811         54.6958         15.5776 
        1.18424         54.1368         15.3899 
        1.19038         53.9221         15.2047 
        1.19652          53.716         15.0227 
        1.20267         53.2768         14.8436 
        1.20881         52.9693         14.6675 
        1.21495          52.523         14.4946 
        1.22108         52.2505         14.3245 
         1.2272         51.7519         14.1576 
        1.23334         51.5775         13.9929 
        1.23949         51.4779         13.8305 
        1.24562          51.034         13.6711 
        1.25174         50.8177         13.5145 
        1.25789         50.5309         13.3599 
        1.26402         50.1024          13.208 
        1.27014         49.6585         13.0589 
        1.27628         49.5395         12.9116 
        1.28244         49.1493         12.7663 
        1.28858         48.9775         12.6235 
        1.29471         48.7889         12.4831 
        1.30084         48.4875         12.3451 
        1.30697         48.1016         12.2089 
        1.31312         47.7499         12.0746 
        1.31925         47.6733         11.9428 
        1.32537         47.4065          11.813 
        1.33151         46.9869         11.6847 
        1.33765          46.913         11.5585 
        1.34378          46.588         11.4343 
        1.34992         46.1681         11.3119 
        1.35606         45.9303          11.191 
         1.3622         45.6763         11.0721 
        1.36833         45.4645         10.9552 
        1.37445          45.361         10.8401 
        1.38059         45.0578         10.7263 
        1.38675         44.7225         10.6138 
        1.39288          44.568         10.5035 
        1.39901          44.252         10.3947 
        1.40515         44.0501         10.2873 
         1.4113         43.9098         10.1814 
        1.41742         43.5535         10.0774 
        1.42355         43.3323         9.97471 
         1.4297         43.0992         9.87312 
        1.43585         42.9734           9.773 
        1.44198         42.6661         9.67465 
        1.44809         42.4959         9.57785 
        1.45423         42.3196         9.48202 
        1.46036         42.1104         9.38767 
        1.46649         41.8207         9.29459 
        1.47263         41.6077         9.20269 
        1.47877         41.4897         9.11208 
        1.48491         41.3347         9.02254 
        1.49104          41.014         8.93441 
        1.49718          40.633         8.84739 
        1.50333         40.5895         8.76139 
        1.50947         40.4139         8.67671 
         1.5156         40.1396         8.59329 
        1.52172          39.949         8.51096 
        1.52787         39.9091         8.42956 
          1.534         39.6008         8.34932 
        1.54013          39.355         8.27021 
        1.54627         39.2561         8.19199 
        1.55241         38.9896         8.11477 
        1.55855         38.7847         8.03866 
        1.56467         38.4734         7.96374 
         1.5708         38.5118         7.88957 
        1.57695         38.1766         7.81623 
        1.58308         38.1203           7.744 
        1.58922          38.007         7.67264 
        1.59535         37.7342         7.60221 
         1.6015         37.4788         7.53256 
        1.60764          37.346         7.46383 
        1.61376         37.1718         7.39614 
        1.61989         36.8686         7.32925 
        1.62604         36.8323         7.26303 
        1.63218         36.6438         7.19768 
        1.63831          36.469         7.13328 
        1.64444          36.314         7.06965 
        1.65059         36.0277         7.00664 
        1.65673         35.8659         6.94447 
        1.66285         35.7473         6.88324 
        1.66898         35.5403         6.82272 
        1.67512         35.4111         6.76281 
        1.68127         35.1729         6.70357 
         1.6874         35.0893         6.64517 
        1.69353          34.881         6.58751 
        1.69967         34.7276         6.53039 
        1.70581         34.6348         6.47398 
        1.71193         34.4482         6.41845 
        1.71806          34.219         6.36345 
        1.72421         34.0376           6.309 
        1.73035         33.8851         6.25524 
        1.73649         33.7486         6.20213 
        1.74262         33.5887         6.14967 
        1.74876         33.5791         6.09779 
        1.75489         33.3168         6.04662 
        1.76101          33.145         5.99605 
        1.76715          33.017           5.946 
        1.77329         32.8756         5.89645 
        1.77943         32.7427         5.84745 
        1.78557         32.5646         5.79909 
        1.79171          32.415         5.75126 
        1.79785         32.2559         5.70396 
        1.80399         32.1401         5.65721 
        1.81012         32.0444         5.61105 
        1.81625         31.8242         5.56542 
        1.82239         31.7475         5.52023 
        1.82853         31.4958         5.47557 
        1.83466         31.4068         5.43145 
        1.84078         31.1764         5.38786 
        1.84692         31.1078         5.34468 
        1.85306         30.9621         5.30192 
         1.8592         30.8164         5.25969 
        1.86533         30.6463         5.21795 
        1.87147         30.5528         5.17662 
        1.87761         30.4977         5.13571 
        1.88375         30.3193          5.0953 
        1.88988         30.2254         5.05536 
        1.89601         30.0164         5.01583 
        1.90215         29.9524          4.9767 
        1.90829         29.8702           4.938 
        1.91442         29.6443         4.89971 
        1.92056         29.5952         4.86186 
         1.9267          29.379         4.82438 
        1.93284         29.2232         4.78726 
        1.93897         29.1748         4.75061 
        1.94509          29.018         4.71443 
        1.95123         28.8816         4.67853 
        1.95737         28.7504         4.64298 
        1.96349          28.638         4.60789 
        1.96964         28.4772         4.57306 
        1.97578         28.4337         4.53858 
        1.98192         28.2363         4.50453 
        1.98805         28.1708         4.47082 
        1.99419         28.0035         4.43745 
        2.00033         27.8537         4.40442 
        2.00647         27.7673         4.37173 
         2.0126         27.6327         4.33942 
        2.01874           27.56          4.3074 
        2.02488         27.5139         4.27567 
        2.03101         27.2855         4.24431 
        2.03714         27.1822         4.21331 
        2.04328         27.0516         4.18258 
        2.04941          26.985         4.15218 
        2.05554          26.855          4.1221 
        2.06167         26.7372         4.09229 
        2.06781         26.6237         4.06276 
        2.07396          26.524         4.03349 
        2.08009         26.4502         4.00455 
        2.08622         26.2899         3.97593 
        2.09237         26.1891         3.94753 
        2.09851         26.0744         3.91941 
        2.10464         26.0226         3.89161 
        2.11077          25.812         3.86411 
        2.11691          25.768         3.83681 
        2.12305         25.6662         3.80978 
        2.12918         25.6223         3.78308 
        2.13531         25.4731         3.75662 
        2.14145         25.4106         3.73037 
         2.1476         25.2313         3.70433 
        2.15372         25.1312         3.67867 
        2.15985         25.0196         3.65323 
        2.16599         24.9561         3.62796 
        2.17213         24.8838         3.60295 
        2.17827         24.6737         3.57819 
         2.1844         24.5843         3.55368 
        2.19054         24.4954         3.52939 
        2.19666         24.4207         3.50537 
         2.2028         24.3419         3.48155 
        2.20893         24.2395         3.45794 
        2.21508         24.1354         3.43452 
        2.22122         23.9665         3.41131 
        2.22736         23.9584         3.38837 
        2.23349          23.829         3.36564 
        2.23962          23.725         3.34311 
        2.24577         23.5995         3.32077 
         2.2519         23.5484         3.29866 
        2.25802         23.4324         3.27679 
        2.26417         23.3623         3.25505 
        2.27031         23.2783          3.2335 
        2.27644         23.1745          3.2122 
        2.28257         23.0633          3.1911 
        2.28872         22.9458         3.17014 
        2.29486         22.8981         3.14938 
        2.30099         22.7868         3.12885 
        2.30712         22.7466         3.10849 
        2.31326         22.6559         3.08828 
         2.3194         22.5275         3.06826 
        2.32553         22.4324         3.04845 
        2.33166         22.3155         3.02883 
         2.3378         22.2253         3.00935 
        2.34394         22.1662         2.99004 
        2.35007         22.0674         2.97092 
        2.35619          21.955         2.95199 
        2.36233         21.9218         2.93319 
        2.36848          21.768         2.91451 
        2.37462         21.7007         2.89603 
        2.38075         21.6285         2.87772 
        2.38689         21.5736         2.85957 
        2.39303         21.4363         2.84157 
        2.39916         21.3566         2.82374 
        2.40529         21.2672         2.80608 
        2.41143         21.2134         2.78854 
        2.41757         21.1205         2.77116 
         2.4237         21.0218         2.75395 
        2.42983         20.9475         2.73689 
        2.43598         20.8792         2.71993 
        2.44211          20.779         2.70314 
        2.44823         20.6709         2.68653 
        2.45437         20.6123         2.67001 
        2.46052         20.5439         2.65363 
        2.46665         20.4823          2.6374 
        2.47279         20.3663         2.62132 
        2.47892         20.3156         2.60536 
        2.48507         20.2216         2.58953 
         2.4912         20.1694         2.57385 
