# k  (h/Mpc)    Pcb(k)  (Mpc/h)^3    Pcb_linear(k)  (Mpc/h)^3
     0.00783031         15269.5         15494.1 
       0.013688           18993         18826.8 
       0.019231         18840.6         18807.8 
      0.0249154         16847.1         17203.6 
      0.0312784         14642.6         14808.2 
      0.0375637         12627.2         12636.2 
      0.0433917         10882.4         11088.1 
      0.0492413         9895.26         9984.86 
      0.0555754         8843.53         9143.14 
      0.0619321         8447.65         8459.19 
       0.067871         7585.53         7817.69 
      0.0738098         6913.13         7114.05 
      0.0800417         6097.16         6331.31 
      0.0862327         5465.47         5582.34 
      0.0921407          4962.9         4963.75 
      0.0982031         4444.36         4465.54 
       0.104506         4199.77         4093.09 
       0.110769         3914.32         3834.06 
       0.116806         3695.13         3639.62 
       0.122832         3513.64         3454.06 
       0.129052         3235.93         3241.29 
       0.135211         3030.84         3003.12 
       0.141259         2865.24         2756.67 
       0.147318         2674.89         2520.21 
       0.153489         2445.14         2310.84 
       0.159709         2316.47         2142.76 
       0.165845         2236.63         2017.63 
       0.171974          2122.6         1922.29 
       0.178125         2024.84         1841.53 
       0.184229         1937.88         1762.74 
        0.19034          1822.7         1677.04 
       0.196428          1776.9         1583.55 
       0.202534         1701.73         1485.95 
       0.208729         1616.17         1390.11 
       0.214876         1544.68         1304.65 
       0.220989         1491.62         1232.67 
       0.227147         1429.41         1173.26 
        0.23329         1374.91         1124.14 
       0.239377         1352.32         1081.22 
       0.245482         1266.77         1039.88 
       0.251667         1258.07         996.974 
       0.257832          1206.8         952.405 
       0.263955         1165.28          907.38 
       0.270079         1123.36         863.442 
        0.27624         1109.76         822.314 
       0.282372         1063.52         785.648 
        0.28843          1053.2           753.8 
       0.294538          1000.1         725.472 
       0.300721         995.284         699.421 
        0.30691         954.312         674.733 
       0.313033           935.5         650.698 
       0.319153          916.73         626.711 
       0.325316         887.074         602.663 
        0.33145         865.715         579.335 
       0.337538         851.083         557.277 
       0.343633         829.988         536.711 
       0.349808         800.996         517.556 
       0.355968         795.851         499.999 
       0.362074         786.755         483.834 
       0.368217         762.608         468.412 
       0.374374         731.913         453.505 
       0.380519         732.278         438.972 
       0.386598         711.758           424.9 
       0.392688          709.24         411.203 
        0.39888         688.257         397.796 
       0.405048         677.711         385.093 
       0.411186         668.084         373.171 
       0.417313         654.254         361.943 
       0.423458         642.323         351.297 
       0.429607         633.585         341.155 
       0.435692         619.094         331.505 
       0.441815         613.827         322.104 
       0.447964          601.18         312.956 
       0.454126         592.914         304.069 
       0.460267         579.731         295.511 
       0.466387         573.285         287.313 
        0.47254         566.078         279.423 
       0.478662         562.563         271.915 
       0.484765         544.489         264.746 
       0.490885         540.653         257.852 
       0.497035         529.967         251.186 
       0.503198         525.264         244.737 
       0.509342          520.71          238.51 
       0.515458         516.559         232.506 
       0.521598         503.475         226.676 
       0.527764         494.749         221.022 
       0.533884         492.693         215.606 
           0.54         486.505         210.384 
       0.546137         483.654          205.33 
       0.552299         475.327         200.435 
       0.558452         472.728         195.717 
       0.564573         466.364         191.178 
       0.570708         459.873         186.771 
       0.576825         448.286         182.509 
       0.582926         448.566         178.388 
       0.589034         444.502         174.387 
       0.595184          440.63         170.484 
       0.601379         433.948         166.679 
       0.607522         428.027         163.025 
       0.613639         426.991         159.499 
       0.619772         417.409         156.071 
       0.625918         415.936         152.738 
       0.632068         409.554         149.501 
       0.638161         408.045         146.388 
         0.6443         401.024          143.34 
       0.650464         398.386          140.37 
       0.656582         395.539         137.505 
       0.662703          394.18         134.721 
       0.668861         387.338         131.999 
       0.675024         384.027         129.352 
       0.681124         381.078         126.804 
       0.687237         377.554         124.322 
       0.693381         372.347         121.894 
       0.699536         367.799         119.528 
       0.705665         365.796         117.236 
       0.711789         363.931         115.006 
       0.717957         360.791         112.819 
        0.72409         358.221         110.702 
       0.730186         353.655         108.653 
       0.736317         350.482         106.645 
       0.742472         348.816         104.681 
       0.748622         345.022         102.768 
        0.75476         340.937         100.908 
       0.760888          337.52         99.0974 
       0.767043         338.013         97.3244 
       0.773185         333.987         95.5988 
       0.779291         329.221         93.9254 
       0.785407         328.189         92.2899 
       0.791564         324.112         90.6835 
       0.797719         321.832         89.1164 
       0.803834         318.825         87.5966 
       0.809972         318.082          86.107 
       0.816124         317.266         84.6492 
       0.822261         313.003         83.2293 
       0.828378         310.648         81.8466 
       0.834502         308.188         80.4944 
       0.840667          305.47         79.1643 
       0.846816         303.898         77.8682 
       0.852925          301.86         76.6096 
       0.859047         299.802         75.3764 
       0.865192         296.239         74.1665 
       0.871341         294.041         72.9826 
       0.877463         293.107         71.8302 
       0.883569         291.309         70.7057 
       0.889708         288.344         69.5998 
       0.895864         286.284         68.5149 
       0.902008         284.374         67.4556 
       0.908149         282.271         66.4195 
       0.914301         279.234         65.4036 
       0.920448          277.71         64.4102 
       0.926574         274.617          63.441 
       0.932687         274.892          62.494 
       0.938823         271.802          61.563 
       0.944975          271.04         60.6491 
       0.951105         268.818         59.7571 
       0.957225         266.939         58.8846 
       0.963368         263.566         58.0268 
       0.969511         262.651         57.1861 
       0.975621          260.41         56.3668 
       0.981748         260.041         55.5615 
       0.987916         258.092          54.767 
        0.99406         254.504         53.9911 
        1.00019         254.089         53.2319 
        1.00632         252.618         52.4881 
        1.01246         250.478         51.7576 
        1.01859          250.85         51.0422 
        1.02471         246.839         50.3413 
        1.03085         245.271         49.6513 
        1.03698         244.319         48.9757 
        1.04314         241.918         48.3099 
        1.04929         240.405         47.6581 
        1.05541          240.83          47.021 
        1.06154         237.048         46.3941 
        1.06769         236.658         45.7777 
        1.07382          234.89         45.1746 
        1.07993         233.211         44.5837 
        1.08607         232.639         44.0011 
        1.09222         230.717         43.4284 
        1.09836         229.074         42.8666 
        1.10449         226.732         42.3154 
        1.11063         224.925         41.7734 
        1.11677         224.574         41.2412 
         1.1229         222.781         40.7192 
        1.12903         221.699         40.2058 
        1.13518         220.182          39.701 
        1.14131         218.403         39.2051 
        1.14745         218.359          38.718 
        1.15359         216.308         38.2392 
        1.15973         214.687         37.7683 
        1.16584         213.235         37.3075 
        1.17197          213.14         36.8538 
        1.17811         210.609         36.4062 
        1.18424         209.508         35.9674 
        1.19038         208.903         35.5347 
        1.19652         207.141         35.1092 
        1.20267         206.807         34.6907 
        1.20881         204.823         34.2792 
        1.21495         203.694         33.8751 
        1.22108         202.411         33.4776 
         1.2272         200.981         33.0874 
        1.23334         200.336         32.7026 
        1.23949         198.711          32.323 
        1.24562         197.895         31.9506 
        1.25174         196.422         31.5846 
        1.25789         195.049         31.2233 
        1.26402         193.492         30.8683 
        1.27014         192.311         30.5197 
        1.27628         191.515         30.1755 
        1.28244         191.395         29.8359 
        1.28858         189.218         29.5021 
        1.29471         187.882         29.1741 
        1.30084         187.213         28.8515 
        1.30697         185.682         28.5333 
        1.31312         184.359         28.2194 
        1.31925         183.666         27.9112 
        1.32537         182.972          27.608 
        1.33151         181.118         27.3082 
        1.33765         180.067         27.0131 
        1.34378         179.439         26.7229 
        1.34992         178.568         26.4368 
        1.35606         178.471         26.1543 
         1.3622         176.595         25.8764 
        1.36833          174.91         25.6033 
        1.37445         174.303         25.3342 
        1.38059         172.963         25.0682 
        1.38675         172.415         24.8054 
        1.39288         171.407         24.5475 
        1.39901         171.055         24.2933 
        1.40515         169.184         24.0422 
         1.4113         168.354         23.7948 
        1.41742         167.169         23.5518 
        1.42355         166.397         23.3117 
         1.4297         165.241         23.0743 
        1.43585         164.458         22.8403 
        1.44198         163.585         22.6105 
        1.44809         162.874         22.3842 
        1.45423         161.983         22.1603 
        1.46036         160.821         21.9398 
        1.46649         159.695         21.7222 
        1.47263         158.733         21.5074 
        1.47877         157.932         21.2957 
        1.48491         156.424         21.0864 
        1.49104         156.401         20.8805 
        1.49718         154.814         20.6771 
        1.50333         154.208         20.4761 
        1.50947         153.491         20.2782 
         1.5156          152.44         20.0832 
        1.52172         151.664         19.8908 
        1.52787         150.377         19.7006 
          1.534          150.01          19.513 
        1.54013         149.019         19.3282 
        1.54627         148.185         19.1453 
        1.55241         147.205         18.9649 
        1.55855         146.395          18.787 
        1.56467          145.39         18.6119 
         1.5708         144.629         18.4386 
        1.57695         144.101         18.2672 
        1.58308         143.315         18.0984 
        1.58922         142.593         17.9316 
        1.59535           141.4          17.767 
         1.6015         141.022         17.6042 
        1.60764         140.137         17.4436 
        1.61376         139.222         17.2854 
        1.61989         138.438         17.1291 
        1.62604         137.431         16.9743 
        1.63218         137.121         16.8216 
        1.63831         136.054         16.6711 
        1.64444         135.501         16.5223 
        1.65059         134.787         16.3751 
        1.65673         133.617         16.2298 
        1.66285         133.281         16.0867 
        1.66898         132.301         15.9453 
        1.67512         132.035         15.8052 
        1.68127          130.85         15.6668 
         1.6874         129.903         15.5303 
        1.69353         129.634         15.3955 
        1.69967         128.772         15.2621 
        1.70581         128.036         15.1302 
        1.71193         127.268         15.0004 
        1.71806         126.755         14.8719 
        1.72421          125.96         14.7446 
        1.73035          125.78          14.619 
        1.73649         124.834         14.4949 
        1.74262          123.91         14.3723 
        1.74876         123.498          14.251 
        1.75489         122.559         14.1315 
        1.76101         121.761         14.0133 
        1.76715         121.352         13.8963 
        1.77329         120.999         13.7805 
        1.77943         119.922          13.666 
        1.78557         119.503         13.5529 
        1.79171         118.652         13.4412 
        1.79785         117.995         13.3306 
        1.80399         117.287         13.2214 
        1.81012         116.777         13.1135 
        1.81625         116.193         13.0068 
        1.82239         115.743         12.9012 
        1.82853         114.896         12.7969 
        1.83466         114.191         12.6937 
        1.84078         113.784         12.5919 
        1.84692         112.808         12.4909 
        1.85306         112.603          12.391 
         1.8592         111.812         12.2923 
        1.86533         110.978         12.1948 
        1.87147         110.507         12.0982 
        1.87761         109.831         12.0026 
        1.88375         109.088         11.9081 
        1.88988         108.704         11.8148 
        1.89601         108.033         11.7224 
        1.90215         107.495          11.631 
        1.90829          106.94         11.5405 
        1.91442         106.395          11.451 
        1.92056         105.662         11.3626 
         1.9267         105.404          11.275 
        1.93284         104.758         11.1882 
        1.93897         104.092         11.1026 
        1.94509         103.646          11.018 
        1.95123         103.065         10.9341 
        1.95737         102.563          10.851 
        1.96349         101.972          10.769 
        1.96964         101.086         10.6876 
        1.97578         100.627          10.607 
        1.98192         100.454         10.5274 
        1.98805         99.5959         10.4487 
        1.99419         99.3238         10.3707 
        2.00033         98.6028         10.2935 
        2.00647         98.2829         10.2171 
         2.0126         97.5742         10.1416 
        2.01874         96.9837         10.0667 
        2.02488          96.631         9.99258 
        2.03101         95.8861         9.91931 
        2.03714         95.3469         9.84685 
        2.04328         95.0274         9.77503 
        2.04941         94.4619         9.70398 
        2.05554         93.9023          9.6337 
        2.06167         93.5374         9.56401 
        2.06781         92.8669         9.49501 
        2.07396         92.4677         9.42659 
        2.08009          92.136         9.35896 
        2.08622         91.4837         9.29207 
        2.09237         91.0046         9.22571 
        2.09851         90.5674         9.15998 
        2.10464         90.1314           9.095 
        2.11077         89.7181         9.03074 
        2.11691         89.3237         8.96695 
        2.12305         88.5693         8.90377 
        2.12918          88.077         8.84136 
        2.13531         87.8049         8.77954 
        2.14145         87.0334         8.71817 
         2.1476         86.6011         8.65732 
        2.15372         86.3536         8.59735 
        2.15985         85.9173          8.5379 
        2.16599         85.3346         8.47883 
        2.17213         84.9181         8.42039 
        2.17827         84.5212         8.36252 
         2.1844         83.9707         8.30524 
        2.19054         83.7507         8.24848 
        2.19666          83.246         8.19234 
         2.2028         82.8361         8.13667 
        2.20893           82.36         8.08149 
        2.21508         81.9165         8.02676 
        2.22122         81.4805         7.97252 
        2.22736         81.1058         7.91889 
        2.23349          80.714         7.86578 
        2.23962         80.3006         7.81312 
        2.24577          79.921          7.7609 
         2.2519         79.5484         7.70923 
        2.25802         78.9875         7.65812 
        2.26417         78.6034         7.60733 
        2.27031         78.2664         7.55695 
        2.27644         77.7536         7.50718 
        2.28257         77.3093         7.45786 
        2.28872         77.0769         7.40889 
        2.29486         76.4708         7.36037 
        2.30099         76.0766         7.31238 
        2.30712         75.8496         7.26481 
        2.31326          75.431         7.21757 
         2.3194         74.9956         7.17078 
        2.32553         74.6508         7.12449 
        2.33166         74.3011         7.07862 
         2.3378         73.7423          7.0331 
        2.34394         73.4133         6.98796 
        2.35007         73.0766         6.94328 
        2.35619         72.7457         6.89905 
        2.36233         72.3252          6.8551 
        2.36848         71.9437         6.81144 
        2.37462         71.4643         6.76825 
        2.38075         71.2997         6.72548 
        2.38689         70.8239         6.68304 
        2.39303         70.4138         6.64098 
        2.39916         70.0974         6.59932 
        2.40529         69.9016         6.55803 
        2.41143         69.3616         6.51706 
        2.41757         69.1306         6.47642 
         2.4237         68.8069          6.4362 
        2.42983         68.3626         6.39633 
        2.43598         68.0272         6.35669 
        2.44211         67.7849         6.31745 
        2.44823         67.3802         6.27864 
        2.45437         66.8781         6.24004 
        2.46052         66.6392         6.20174 
        2.46665          66.398         6.16383 
        2.47279         65.9703         6.12624 
        2.47892         65.6855         6.08895 
        2.48507          65.257         6.05193 
         2.4912         64.9886          6.0153 
