# k  (h/Mpc)    Pcb(k)  (Mpc/h)^3    Pcb_linear(k)  (Mpc/h)^3
     0.00783031         3623.99         3664.95 
       0.013688         4464.14          4455.6 
       0.019231         4458.45         4453.22 
      0.0249154         4038.31         4074.81 
      0.0312784         3499.74         3508.22 
      0.0375637         3002.71         2994.06 
      0.0433917         2614.38         2627.52 
      0.0492413         2365.01         2366.28 
      0.0555754         2143.06         2166.94 
      0.0619321         2015.02         2004.93 
       0.067871         1836.96         1852.96 
      0.0738098         1671.37         1686.23 
      0.0800417            1481         1500.74 
      0.0862327         1315.77         1323.23 
      0.0921407         1178.15         1176.62 
      0.0982031          1055.3         1058.54 
       0.104506         982.136         970.261 
       0.110769          917.49         908.866 
       0.116806          863.83         862.783 
       0.122832          824.48         818.801 
       0.129052         765.988         768.369 
       0.135211         711.758         711.913 
       0.141259         661.498         653.493 
       0.147318         610.294          597.44 
       0.153489         557.453         547.809 
       0.159709         521.021         507.967 
       0.165845         496.947         478.304 
       0.171974         468.822         455.704 
       0.178125         449.866         436.561 
       0.184229         432.218         417.882 
        0.19034         404.298         397.568 
       0.196428          389.19         375.405 
       0.202534          371.19         352.267 
       0.208729         347.211         329.548 
       0.214876         325.274         309.288 
       0.220989         312.672         292.226 
       0.227147         295.028         278.141 
        0.23329         283.379         266.497 
       0.239377         275.355         256.323 
       0.245482          259.67         246.522 
       0.251667         254.173          236.35 
       0.257832         244.156         225.785 
       0.263955         233.611         215.111 
       0.270079         223.682         204.695 
        0.27624         217.524         194.945 
       0.282372          208.59         186.253 
        0.28843         200.175         178.703 
       0.294538         192.154         171.987 
       0.300721         188.737         165.811 
        0.30691         180.271         159.958 
       0.313033         175.118         154.261 
       0.319153         167.132         148.574 
       0.325316         163.636         142.873 
        0.33145         157.321         137.343 
       0.337538         153.869         132.113 
       0.343633         148.347         127.238 
       0.349808         143.749         122.697 
       0.355968         140.339         118.535 
       0.362074         136.074         114.703 
       0.368217         132.199         111.046 
       0.374374         128.271         107.512 
       0.380519         125.252         104.067 
       0.386598         121.795         100.731 
       0.392688         119.418          97.484 
        0.39888         116.037         94.3055 
       0.405048          113.19         91.2943 
       0.411186         110.582         88.4679 
       0.417313         107.437          85.806 
       0.423458         104.916         83.2821 
       0.429607         102.245         80.8778 
       0.435692         98.8867           78.59 
       0.441815         97.8438         76.3615 
       0.447964         96.1566         74.1927 
       0.454126          91.952          72.086 
       0.460267         90.7162         70.0569 
       0.466387         88.6916         68.1135 
        0.47254         87.1434         66.2432 
       0.478662         85.8545         64.4631 
       0.484765         83.3773         62.7637 
       0.490885         81.7306         61.1292 
       0.497035         80.6685         59.5489 
       0.503198         78.4383         58.0201 
       0.509342          76.599         56.5437 
       0.515458         75.3201         55.1205 
       0.521598         74.2241         53.7384 
       0.527764         72.8835         52.3979 
       0.533884         71.6608         51.1139 
           0.54         70.1769         49.8761 
       0.546137         69.3307         48.6778 
       0.552299         68.2778         47.5174 
       0.558452         66.3788          46.399 
       0.564573         65.2275         45.3229 
       0.570708         64.3973          44.278 
       0.576825         63.1624         43.2677 
       0.582926         61.8877         42.2906 
       0.589034         60.5294         41.3421 
       0.595184         59.8004          40.417 
       0.601379          58.941         39.5148 
       0.607522         57.5578         38.6485 
       0.613639         57.3155         37.8126 
       0.619772         55.8978         36.9999 
       0.625918         55.5104         36.2099 
       0.632068         54.7106         35.4425 
       0.638161         53.8057         34.7043 
         0.6443         52.9058         33.9819 
       0.650464         52.1066         33.2777 
       0.656582         51.6452         32.5986 
       0.662703         50.5957         31.9385 
       0.668861         49.9135         31.2933 
       0.675024         49.1816         30.6656 
       0.681124          48.367         30.0617 
       0.687237         47.5463         29.4731 
       0.693381         47.1801         28.8977 
       0.699536         46.1956         28.3367 
       0.705665         46.3397         27.7932 
       0.711789         45.1222         27.2646 
       0.717957         44.6591         26.7462 
        0.72409         44.0555         26.2444 
       0.730186         43.3652         25.7585 
       0.736317         43.0963         25.2825 
       0.742472         42.3603         24.8168 
       0.748622         42.0066         24.3634 
        0.75476         41.4203         23.9225 
       0.760888         40.7878         23.4932 
       0.767043         40.3508         23.0729 
       0.773185         39.7646         22.6638 
       0.779291         39.5837          22.267 
       0.785407         39.1651         21.8793 
       0.791564          38.496         21.4985 
       0.797719         37.7653          21.127 
       0.803834         37.7089         20.7667 
       0.809972         37.2133         20.4135 
       0.816124         36.5338         20.0679 
       0.822261         36.2918         19.7313 
       0.828378         36.0147         19.4035 
       0.834502         35.5867         19.0829 
       0.840667         35.2168         18.7676 
       0.846816         34.6707         18.4604 
       0.852925          34.379          18.162 
       0.859047         33.9512         17.8696 
       0.865192         33.6672         17.5828 
       0.871341         33.5035         17.3021 
       0.877463         32.8306         17.0289 
       0.883569         32.5476         16.7623 
       0.889708         32.2533         16.5001 
       0.895864         31.9624         16.2429 
       0.902008         31.6991         15.9918 
       0.908149         31.3778         15.7462 
       0.914301         31.2626         15.5054 
       0.920448         30.6927         15.2698 
       0.926574         30.4808         15.0401 
       0.932687          30.165         14.8156 
       0.938823         29.7559         14.5949 
       0.944975         29.5903         14.3782 
       0.951105          29.318         14.1667 
       0.957225         28.9688         13.9599 
       0.963368         28.8613         13.7565 
       0.969511         28.5897         13.5572 
       0.975621         28.3626          13.363 
       0.981748         27.9619         13.1721 
       0.987916         27.8269         12.9837 
        0.99406         27.5503         12.7998 
        1.00019          27.219         12.6198 
        1.00632         27.0808         12.4435 
        1.01246         26.8984         12.2703 
        1.01859         26.5002         12.1007 
        1.02471          26.466         11.9345 
        1.03085         26.2145         11.7709 
        1.03698         25.8139         11.6108 
        1.04314         25.6492         11.4529 
        1.04929         25.4299         11.2984 
        1.05541         25.1672         11.1474 
        1.06154         25.0664         10.9987 
        1.06769         24.8893         10.8526 
        1.07382         24.6406         10.7096 
        1.07993         24.5365         10.5696 
        1.08607          24.205         10.4314 
        1.09222         24.1118         10.2956 
        1.09836         23.8267         10.1625 
        1.10449         23.7012         10.0318 
        1.11063         23.4092         9.90331 
        1.11677         23.3399         9.77713 
         1.1229         23.2269         9.65338 
        1.12903         22.9162         9.53168 
        1.13518         22.7302         9.41199 
        1.14131         22.6777         9.29443 
        1.14745         22.4739         9.17896 
        1.15359         22.3711         9.06544 
        1.15973         22.1217         8.95381 
        1.16584         21.8747         8.84456 
        1.17197         21.9011         8.73699 
        1.17811         21.6078         8.63089 
        1.18424         21.4361         8.52687 
        1.19038         21.3793         8.42427 
        1.19652         21.2269         8.32341 
        1.20267         21.0603          8.2242 
        1.20881         20.9224         8.12665 
        1.21495         20.7826         8.03084 
        1.22108         20.6185         7.93659 
         1.2272         20.4139          7.8441 
        1.23334         20.3287         7.75287 
        1.23949         20.1476         7.66288 
        1.24562         20.0829         7.57459 
        1.25174         19.9633         7.48782 
        1.25789         19.8035         7.40216 
        1.26402         19.7249           7.318 
        1.27014         19.5114         7.23536 
        1.27628         19.3444         7.15376 
        1.28244         19.2927         7.07326 
        1.28858         19.2201         6.99412 
        1.29471         19.0428         6.91637 
        1.30084         18.8996         6.83988 
        1.30697         18.7817         6.76444 
        1.31312         18.6105         6.69003 
        1.31925         18.5112         6.61698 
        1.32537         18.4591         6.54509 
        1.33151         18.2904         6.47402 
        1.33765         18.2211         6.40404 
        1.34378         18.1236         6.33525 
        1.34992         17.9024         6.26742 
        1.35606         17.8778         6.20045 
         1.3622         17.7651         6.13457 
        1.36833         17.6251         6.06982 
        1.37445         17.5895         6.00603 
        1.38059         17.4563         5.94297 
        1.38675         17.2696         5.88067 
        1.39288         17.2394         5.81952 
        1.39901         17.1001         5.75927 
        1.40515         17.0319         5.69974 
         1.4113         16.9092         5.64108 
        1.41742         16.7776         5.58347 
        1.42355         16.7256         5.52656 
         1.4297         16.6438         5.47027 
        1.43585         16.5902          5.4148 
        1.44198         16.4218         5.36031 
        1.44809         16.3537         5.30667 
        1.45423         16.2635         5.25358 
        1.46036         16.1933         5.20131 
        1.46649         16.1028         5.14973 
        1.47263         15.9721         5.09881 
        1.47877         15.8981         5.04861 
        1.48491         15.8279           4.999 
        1.49104         15.7758         4.95017 
        1.49718         15.6402         4.90196 
        1.50333         15.5841         4.85431 
        1.50947         15.5102         4.80739 
         1.5156         15.3718         4.76117 
        1.52172         15.2984         4.71556 
        1.52787         15.2453         4.67046 
          1.534         15.1353           4.626 
        1.54013         15.0237         4.58217 
        1.54627         14.9656         4.53883 
        1.55241         14.8911         4.49604 
        1.55855         14.8114         4.45388 
        1.56467          14.739         4.41237 
         1.5708         14.7111         4.37127 
        1.57695         14.5727         4.33064 
        1.58308         14.5449         4.29062 
        1.58922         14.4568         4.25108 
        1.59535         14.3794         4.21206 
         1.6015         14.2864         4.17347 
        1.60764         14.2317         4.13539 
        1.61376         14.1791         4.09789 
        1.61989         14.0516         4.06082 
        1.62604         14.0475         4.02413 
        1.63218         13.9491         3.98792 
        1.63831         13.9068         3.95224 
        1.64444         13.7847         3.91699 
        1.65059         13.7281         3.88208 
        1.65673         13.7022         3.84763 
        1.66285         13.5751          3.8137 
        1.66898         13.5594         3.78017 
        1.67512          13.491         3.74698 
        1.68127         13.4107         3.71416 
         1.6874         13.3414          3.6818 
        1.69353         13.2831         3.64985 
        1.69967         13.2123         3.61821 
        1.70581         13.1525         3.58695 
        1.71193         13.0748         3.55619 
        1.71806         13.0408         3.52572 
        1.72421         12.9535         3.49554 
        1.73035         12.9142         3.46576 
        1.73649         12.8519         3.43633 
        1.74262         12.8193         3.40727 
        1.74876         12.7479         3.37853 
        1.75489         12.6895         3.35017 
        1.76101         12.5997         3.32216 
        1.76715         12.6012         3.29442 
        1.77329         12.4961         3.26697 
        1.77943         12.4363         3.23982 
        1.78557         12.4059         3.21302 
        1.79171         12.3686         3.18652 
        1.79785         12.2633         3.16032 
        1.80399         12.2259         3.13442 
        1.81012         12.1893         3.10884 
        1.81625         12.1134         3.08356 
        1.82239         12.0744         3.05852 
        1.82853         11.9828         3.03378 
        1.83466         11.9446         3.00933 
        1.84078         11.8651         2.98518 
        1.84692         11.8577         2.96126 
        1.85306         11.7926         2.93756 
         1.8592         11.7403         2.91417 
        1.86533          11.703         2.89104 
        1.87147         11.6467         2.86814 
        1.87761           11.61         2.84548 
        1.88375         11.5137         2.82309 
        1.88988         11.5123         2.80096 
        1.89601         11.4535         2.77906 
        1.90215         11.3882         2.75737 
        1.90829         11.3494         2.73593 
        1.91442         11.3019         2.71472 
        1.92056         11.2615         2.69375 
         1.9267         11.2125         2.67298 
        1.93284         11.1472         2.65242 
        1.93897         11.0916         2.63211 
        1.94509          11.055         2.61206 
        1.95123         11.0192         2.59217 
        1.95737         10.9747         2.57247 
        1.96349         10.9258         2.55303 
        1.96964         10.8725         2.53374 
        1.97578         10.8343         2.51463 
        1.98192         10.7714         2.49576 
        1.98805         10.7505         2.47709 
        1.99419         10.6947          2.4586 
        2.00033         10.6614          2.4403 
        2.00647         10.6236         2.42219 
         2.0126         10.5503         2.40429 
        2.01874         10.5179         2.38654 
        2.02488         10.4583         2.36896 
        2.03101         10.4522         2.35159 
        2.03714         10.4014         2.33441 
        2.04328          10.356         2.31739 
        2.04941         10.2955         2.30054 
        2.05554         10.2876         2.28388 
        2.06167         10.2255         2.26736 
        2.06781         10.2062           2.251 
        2.07396         10.1704         2.23478 
        2.08009         10.1235         2.21875 
        2.08622         10.0509         2.20289 
        2.09237         10.0484         2.18716 
        2.09851          10.009         2.17158 
        2.10464         9.95519         2.15617 
        2.11077         9.90964         2.14094 
        2.11691         9.87037         2.12581 
        2.12305         9.84282         2.11084 
        2.12918         9.80776         2.09604 
        2.13531         9.77129         2.08138 
        2.14145         9.73045         2.06684 
         2.1476         9.69952         2.05241 
        2.15372         9.65953         2.03819 
        2.15985         9.62492          2.0241 
        2.16599          9.5906         2.01009 
        2.17213         9.56211         1.99624 
        2.17827         9.52295         1.98252 
         2.1844         9.48555         1.96894 
        2.19054         9.42814         1.95549 
        2.19666         9.41549         1.94218 
         2.2028         9.37413         1.92898 
        2.20893         9.35598          1.9159 
        2.21508         9.29782         1.90292 
        2.22122         9.25801         1.89006 
        2.22736         9.23485         1.87735 
        2.23349         9.18335         1.86476 
        2.23962         9.17437         1.85227 
        2.24577         9.12395         1.83989 
         2.2519         9.10425         1.82764 
        2.25802         9.06363         1.81553 
        2.26417         9.03322         1.80349 
        2.27031         8.99485         1.79154 
        2.27644         8.96326         1.77974 
        2.28257         8.94038         1.76805 
        2.28872         8.89584         1.75644 
        2.29486         8.87388         1.74494 
        2.30099         8.86285         1.73356 
        2.30712         8.81957         1.72228 
        2.31326          8.7783         1.71108 
         2.3194         8.73579         1.69999 
        2.32553         8.72067         1.68902 
        2.33166         8.67183         1.67814 
         2.3378         8.65438         1.66735 
        2.34394         8.62419         1.65665 
        2.35007         8.58178         1.64606 
        2.35619          8.5502         1.63557 
        2.36233         8.51548         1.62515 
        2.36848         8.50814          1.6148 
        2.37462         8.47372         1.60456 
        2.38075          8.4243         1.59442 
        2.38689         8.40489         1.58436 
        2.39303         8.37561         1.57439 
        2.39916         8.35484         1.56452 
        2.40529         8.33027         1.55473 
        2.41143         8.29134         1.54501 
        2.41757         8.27844         1.53538 
         2.4237          8.2399         1.52584 
        2.42983         8.20922         1.51639 
        2.43598         8.20009         1.50699 
        2.44211         8.15275         1.49769 
        2.44823         8.13156         1.48849 
        2.45437         8.11209         1.47934 
        2.46052         8.06388         1.47026 
        2.46665         8.04222         1.46127 
        2.47279         8.01317         1.45236 
        2.47892         7.98085         1.44352 
        2.48507         7.95681         1.43474 
         2.4912          7.9349         1.42606 
