# k  (h/Mpc)    Pcb(k)  (Mpc/h)^3    Pcb_linear(k)  (Mpc/h)^3
     0.00783031         8113.73         8217.85 
       0.013688         10041.4         9987.97 
       0.019231         9997.59         9980.09 
      0.0249154         9002.09          9130.3 
      0.0312784         7813.72         7859.82 
      0.0375637         6719.64         6707.42 
      0.0433917         5823.35         5885.99 
      0.0492413         5280.69         5300.55 
      0.0555754         4755.82         4853.87 
      0.0619321         4506.57         4490.88 
       0.067871         4079.29          4150.4 
      0.0738098         3713.52         3776.89 
      0.0800417         3282.93         3361.37 
      0.0862327          2928.4         2963.76 
      0.0921407         2637.98         2635.37 
      0.0982031         2360.77         2370.87 
       0.104506         2214.17         2173.14 
       0.110769         2065.88         2035.62 
       0.116806         1944.96          1932.4 
       0.122832         1855.08         1833.89 
       0.129052         1715.38         1720.93 
       0.135211         1600.07         1594.48 
       0.141259         1498.66         1463.63 
       0.147318         1389.36         1338.09 
       0.153489         1268.66         1226.92 
       0.159709         1194.42         1137.69 
       0.165845         1145.04         1071.25 
       0.171974         1082.46         1020.63 
       0.178125         1036.18         977.757 
       0.184229         995.153         935.921 
        0.19034         928.259         890.423 
       0.196428         901.863         840.785 
       0.202534          863.72         788.962 
       0.208729         812.946         738.079 
       0.214876         766.622         692.704 
       0.220989         739.711         654.489 
       0.227147         702.122         622.942 
        0.23329         675.041         596.865 
       0.239377         660.025         574.078 
       0.245482         617.227         552.126 
       0.251667         609.487         529.345 
       0.257832         586.215         505.682 
       0.263955         563.861         481.776 
       0.270079         541.478         458.447 
        0.27624         532.155          436.61 
       0.282372         510.222         417.142 
        0.28843         495.434         400.233 
       0.294538         472.371         385.192 
       0.300721         468.644          371.36 
        0.30691         447.004         358.252 
       0.313033         437.216         345.491 
       0.319153          421.85         332.755 
       0.325316          409.98         319.987 
        0.33145         396.837           307.6 
       0.337538         390.989         295.889 
       0.343633         377.845         284.969 
       0.349808         365.351         274.799 
       0.355968         360.768         265.477 
       0.362074          352.53         256.894 
       0.368217         342.878         248.705 
       0.374374          329.97          240.79 
       0.380519         325.884         233.075 
       0.386598          317.58         225.603 
       0.392688         314.108          218.33 
        0.39888          305.47         211.212 
       0.405048          298.39         204.467 
       0.411186         292.217         198.137 
       0.417313          286.59         192.175 
       0.423458         280.938         186.523 
       0.429607         274.847         181.138 
       0.435692         267.186         176.014 
       0.441815          265.09         171.023 
       0.447964         260.042         166.166 
       0.454126         250.145         161.447 
       0.460267         247.167         156.903 
       0.466387         244.197          152.55 
        0.47254         238.704         148.361 
       0.478662         237.451         144.375 
       0.484765         230.068         140.569 
       0.490885         226.969         136.908 
       0.497035         223.673         133.369 
       0.503198         218.213         129.945 
       0.509342         215.773         126.638 
       0.515458         212.829          123.45 
       0.521598         209.218         120.355 
       0.527764         206.041         117.353 
       0.533884         203.267         114.477 
           0.54         200.106         111.705 
       0.546137         198.806         109.021 
       0.552299         194.938         106.422 
       0.558452         192.379         103.917 
       0.564573         189.211         101.507 
       0.570708         185.781         99.1671 
       0.576825         183.447         96.9044 
       0.582926         180.646          94.716 
       0.589034          178.39         92.5918 
       0.595184         176.445         90.5198 
       0.601379         174.519         88.4993 
       0.607522         170.834         86.5591 
       0.613639         170.001         84.6869 
       0.619772         166.321         82.8668 
       0.625918         164.731         81.0973 
       0.632068          162.81         79.3787 
       0.638161          161.58         77.7254 
         0.6443         159.189         76.1075 
       0.650464         157.587         74.5302 
       0.656582         155.749         73.0094 
       0.662703         153.744         71.5311 
       0.668861         151.471         70.0859 
       0.675024         149.732         68.6802 
       0.681124         148.841         67.3277 
       0.687237         146.249         66.0093 
       0.693381         144.265         64.7205 
       0.699536         143.221         63.4642 
       0.705665         143.138          62.247 
       0.711789         139.899         61.0631 
       0.717957         139.436         59.9021 
        0.72409          137.43         58.7781 
       0.730186         135.323           57.69 
       0.736317         134.605         56.6238 
       0.742472         133.646         55.5809 
       0.748622         132.376         54.5654 
        0.75476         131.153         53.5778 
       0.760888          129.33         52.6164 
       0.767043         128.586          51.675 
       0.773185         127.214         50.7588 
       0.779291         125.428         49.8703 
       0.785407         124.708          49.002 
       0.791564         123.558          48.149 
       0.797719         121.692         47.3169 
       0.803834         121.161           46.51 
       0.809972          119.63         45.7191 
       0.816124          119.32         44.9451 
       0.822261         118.005         44.1912 
       0.828378         116.899          43.457 
       0.834502         116.369          42.739 
       0.840667         114.804         42.0328 
       0.846816          113.63         41.3446 
       0.852925         112.872         40.6764 
       0.859047         111.501         40.0216 
       0.865192         110.912         39.3792 
       0.871341         109.898         38.7506 
       0.877463         108.756         38.1387 
       0.883569          108.06         37.5417 
       0.889708         107.273         36.9545 
       0.895864         106.313         36.3784 
       0.902008         105.505          35.816 
       0.908149         104.906         35.2659 
       0.914301         103.789         34.7265 
       0.920448          103.09          34.199 
       0.926574          102.36         33.6844 
       0.932687         102.055         33.1816 
       0.938823         100.468         32.6873 
       0.944975         99.6523          32.202 
       0.951105         99.0811         31.7284 
       0.957225         97.9206         31.2652 
       0.963368         97.4099         30.8097 
       0.969511         97.0766         30.3634 
       0.975621         96.5809         29.9283 
       0.981748         95.7177         29.5008 
       0.987916         94.7853         29.0789 
        0.99406         94.1939          28.667 
        1.00019         93.4535         28.2639 
        1.00632         92.9215         27.8689 
        1.01246         92.1953          27.481 
        1.01859         90.9801         27.1012 
        1.02471          91.111         26.7291 
        1.03085         90.1429         26.3627 
        1.03698         89.5861          26.004 
        1.04314         88.7155         25.6505 
        1.04929         88.2353         25.3044 
        1.05541         87.5356         24.9661 
        1.06154         87.2007         24.6333 
        1.06769         86.7425          24.306 
        1.07382         86.2956         23.9857 
        1.07993         85.6637          23.672 
        1.08607         84.9513         23.3627 
        1.09222         84.5457         23.0586 
        1.09836         83.8923         22.7603 
        1.10449         83.4092         22.4677 
        1.11063         82.8159         22.1799 
        1.11677         82.3877         21.8973 
         1.1229         81.5675         21.6201 
        1.12903         80.7912         21.3476 
        1.13518         81.0495         21.0795 
        1.14131         80.4156         20.8162 
        1.14745         79.5249         20.5576 
        1.15359         79.2409         20.3034 
        1.15973         78.7955         20.0533 
        1.16584         78.2087         19.8087 
        1.17197         77.7736         19.5678 
        1.17811         77.3227         19.3301 
        1.18424         76.7202         19.0972 
        1.19038         76.2484         18.8674 
        1.19652         75.9555         18.6415 
        1.20267          75.311         18.4193 
        1.20881         74.9618         18.2008 
        1.21495         74.3767         17.9862 
        1.22108         74.0162         17.7752 
         1.2272         73.3655          17.568 
        1.23334         73.1032         17.3637 
        1.23949         72.7177         17.1621 
        1.24562         72.3324         16.9644 
        1.25174         71.9197         16.7701 
        1.25789         71.5785         16.5782 
        1.26402         71.1534         16.3897 
        1.27014         70.4288         16.2046 
        1.27628         70.2847         16.0219 
        1.28244         69.6951         15.8416 
        1.28858           69.45         15.6643 
        1.29471         69.1318         15.4902 
        1.30084         68.6661         15.3189 
        1.30697          68.241         15.1499 
        1.31312         67.8498         14.9833 
        1.31925          67.621         14.8197 
        1.32537         67.2793         14.6587 
        1.33151         66.6129         14.4995 
        1.33765         66.3396         14.3428 
        1.34378         65.9319         14.1887 
        1.34992         65.6607         14.0368 
        1.35606         65.2913         13.8868 
         1.3622          64.757         13.7393 
        1.36833         64.5791         13.5942 
        1.37445         64.2367         13.4514 
        1.38059         63.7444         13.3101 
        1.38675         63.4288         13.1706 
        1.39288         63.0395         13.0337 
        1.39901         62.9103         12.8987 
        1.40515         62.5264         12.7654 
         1.4113         62.1896          12.634 
        1.41742         61.9911          12.505 
        1.42355         61.4403         12.3775 
         1.4297         61.2149         12.2515 
        1.43585         60.7885         12.1272 
        1.44198         60.5518         12.0052 
        1.44809         60.2769         11.8851 
        1.45423         59.9847         11.7661 
        1.46036         59.7258         11.6491 
        1.46649         59.3619         11.5336 
        1.47263         58.9658         11.4195 
        1.47877         58.7988         11.3071 
        1.48491         58.5884          11.196 
        1.49104         58.1138         11.0866 
        1.49718         57.6716         10.9786 
        1.50333         57.5163         10.8719 
        1.50947         57.2346         10.7669 
         1.5156         56.9153         10.6633 
        1.52172         56.7192         10.5612 
        1.52787          56.549         10.4602 
          1.534         56.1663         10.3606 
        1.54013         55.8319         10.2624 
        1.54627         55.6307         10.1654 
        1.55241         55.2251         10.0695 
        1.55855         54.9283          9.9751 
        1.56467         54.5339         9.88213 
         1.5708         54.5558         9.79009 
        1.57695          54.258         9.69909 
        1.58308         53.8911         9.60946 
        1.58922         53.8564         9.52091 
        1.59535         53.5856         9.43351 
         1.6015         53.0677         9.34709 
        1.60764         52.9377         9.26179 
        1.61376         52.6534         9.17781 
        1.61989         52.2964         9.09479 
        1.62604         52.1955         9.01263 
        1.63218          52.024         8.93153 
        1.63831         51.7142         8.85162 
        1.64444         51.4222         8.77266 
        1.65059         51.0626         8.69448 
        1.65673         50.9074         8.61733 
        1.66285         50.6145         8.54134 
        1.66898         50.3867         8.46624 
        1.67512          50.091         8.39191 
        1.68127          49.809         8.31839 
         1.6874         49.7024         8.24593 
        1.69353         49.3922         8.17437 
        1.69967         49.1649          8.1035 
        1.70581         49.0892          8.0335 
        1.71193         48.8192         7.96459 
        1.71806         48.3811         7.89635 
        1.72421         48.2905         7.82878 
        1.73035         48.0142         7.76207 
        1.73649         47.6322         7.69616 
        1.74262         47.6147         7.63107 
        1.74876          47.421         7.56669 
        1.75489         47.1175         7.50319 
        1.76101         46.9512         7.44045 
        1.76715          46.661         7.37833 
        1.77329         46.4577         7.31685 
        1.77943         46.2633         7.25605 
        1.78557         46.0977         7.19603 
        1.79171         45.8026         7.13668 
        1.79785         45.5987         7.07799 
        1.80399         45.4407         7.01998 
        1.81012         45.2654         6.96269 
        1.81625         44.8434         6.90608 
        1.82239         44.7573            6.85 
        1.82853         44.4138         6.79458 
        1.83466         44.3517         6.73983 
        1.84078         43.9885         6.68574 
        1.84692         43.8373         6.63216 
        1.85306         43.6509          6.5791 
         1.8592         43.3882          6.5267 
        1.86533          43.256         6.47491 
        1.87147         43.0994         6.42361 
        1.87761         42.9345         6.37286 
        1.88375         42.6798         6.32271 
        1.88988          42.644         6.27315 
        1.89601         42.3043          6.2241 
        1.90215         42.1395         6.17554 
        1.90829         42.0443         6.12752 
        1.91442         41.7836            6.08 
        1.92056         41.5746         6.03304 
         1.9267         41.2881         5.98652 
        1.93284         41.1557         5.94047 
        1.93897         41.0128         5.89499 
        1.94509         40.7411         5.85009 
        1.95123         40.6688         5.80554 
        1.95737         40.4125         5.76143 
        1.96349         40.2242         5.71788 
        1.96964         40.1099         5.67467 
        1.97578         39.8809         5.63188 
        1.98192         39.7096         5.58962 
        1.98805          39.549          5.5478 
        1.99419         39.2736          5.5064 
        2.00033         39.1466          5.4654 
        2.00647         38.9697         5.42483 
         2.0126         38.7902         5.38475 
        2.01874         38.6504         5.34501 
        2.02488         38.5323         5.30563 
        2.03101          38.265         5.26673 
        2.03714         38.1127         5.22825 
        2.04328         37.9077         5.19012 
        2.04941         37.7407          5.1524 
        2.05554         37.5305         5.11508 
        2.06167         37.4736         5.07808 
        2.06781         37.2505         5.04144 
        2.07396         37.0734         5.00512 
        2.08009         36.9561         4.96921 
        2.08622         36.7247         4.93369 
        2.09237         36.5608         4.89846 
        2.09851         36.3815         4.86356 
        2.10464          36.275         4.82906 
        2.11077         36.1267         4.79493 
        2.11691         35.9356         4.76107 
        2.12305         35.7505         4.72752 
        2.12918         35.6639         4.69438 
        2.13531         35.4386         4.66156 
        2.14145         35.3684         4.62898 
         2.1476         35.1416         4.59667 
        2.15372         34.9466         4.56483 
        2.15985         34.8389         4.53326 
        2.16599         34.8024          4.5019 
        2.17213         34.6541         4.47087 
        2.17827          34.358         4.44014 
         2.1844         34.2306         4.40973 
        2.19054         34.0718         4.37959 
        2.19666         33.9488         4.34978 
         2.2028         33.7891         4.32022 
        2.20893         33.6935         4.29092 
        2.21508         33.5333         4.26186 
        2.22122         33.3213         4.23307 
        2.22736         33.2272         4.20459 
        2.23349         33.0989         4.17639 
        2.23962         32.8911         4.14843 
        2.24577         32.7512         4.12071 
         2.2519         32.6174         4.09327 
        2.25802         32.5005         4.06613 
        2.26417         32.3677         4.03917 
        2.27031         32.2777         4.01242 
        2.27644         32.0258         3.98599 
        2.28257          31.939          3.9598 
        2.28872         31.7658          3.9338 
        2.29486         31.7136         3.90804 
        2.30099         31.5517         3.88256 
        2.30712         31.4253          3.8573 
        2.31326         31.3332         3.83222 
         2.3194         31.1677         3.80738 
        2.32553         30.9909          3.7828 
        2.33166         30.8694         3.75845 
         2.3378         30.7201         3.73427 
        2.34394         30.5439         3.71031 
        2.35007          30.442         3.68659 
        2.35619         30.3876          3.6631 
        2.36233         30.2797         3.63976 
        2.36848          30.051         3.61658 
        2.37462          29.987         3.59365 
        2.38075         29.8423         3.57094 
        2.38689         29.7732         3.54841 
        2.39303         29.5838         3.52608 
        2.39916         29.4165         3.50396 
        2.40529         29.2446         3.48203 
        2.41143         29.1953         3.46028 
        2.41757         29.1049          3.4387 
         2.4237         28.9375         3.41735 
        2.42983         28.8364         3.39618 
        2.43598         28.6823         3.37513 
        2.44211         28.5697          3.3543 
        2.44823         28.4304         3.33369 
        2.45437         28.3637          3.3132 
        2.46052         28.1921         3.29286 
        2.46665         28.1332         3.27273 
        2.47279         28.0085         3.25277 
        2.47892         27.8445         3.23297 
        2.48507         27.7368         3.21332 
         2.4912         27.6442         3.19386 
