# k  (h/Mpc)    Pcb(k)  (Mpc/h)^3    Pcb_linear(k)  (Mpc/h)^3
     0.00783031          3285.2         3321.87 
       0.013688         4044.95         4038.63 
       0.019231         4040.97         4036.58 
      0.0249154          3662.2         3693.65 
      0.0312784         3173.26         3180.11 
      0.0375637            2722         2714.06 
      0.0433917         2370.99         2381.81 
      0.0492413         2144.34         2145.01 
      0.0555754         1944.17         1964.31 
      0.0619321          1826.6         1817.46 
       0.067871          1666.3          1679.7 
      0.0738098         1516.05         1528.56 
      0.0800417         1343.68         1360.41 
      0.0862327         1193.34         1199.51 
      0.0921407         1067.97          1066.6 
      0.0982031         956.762         959.564 
       0.104506          889.74         879.542 
       0.110769         831.272         823.888 
       0.116806          782.77         782.114 
       0.122832          747.06         742.244 
       0.129052         694.397         696.528 
       0.135211         645.024          645.35 
       0.141259         599.051         592.393 
       0.147318         552.445         541.581 
       0.153489         504.658          496.59 
       0.159709         471.352         460.473 
       0.165845         449.356         433.584 
       0.171974         423.915         413.097 
       0.178125         406.821         395.744 
       0.184229         390.838         378.811 
        0.19034         365.828         360.396 
       0.196428         351.773         340.306 
       0.202534         335.308         319.331 
       0.208729         313.507         298.736 
       0.214876         293.595         280.371 
       0.220989         282.071         264.904 
       0.227147         266.079         252.135 
        0.23329         255.536         241.581 
       0.239377         248.136         232.358 
       0.245482         234.281         223.473 
       0.251667         229.091         214.253 
       0.257832         219.965         204.675 
       0.263955         210.389         194.999 
       0.270079         201.385         185.557 
        0.27624         195.618         176.718 
       0.282372         187.562         168.839 
        0.28843         179.874         161.995 
       0.294538         172.747         155.907 
       0.300721         169.491         150.308 
        0.30691         161.935         145.003 
       0.313033         157.204         139.838 
       0.319153         149.948         134.683 
       0.325316         146.892         129.515 
        0.33145         141.157         124.502 
       0.337538         137.901         119.761 
       0.343633         132.918         115.342 
       0.349808         128.822         111.225 
       0.355968         125.632         107.452 
       0.362074         121.767         103.978 
       0.368217         118.278         100.664 
       0.374374         114.769         97.4605 
       0.380519             112         94.3374 
       0.386598         108.891         91.3132 
       0.392688         106.697         88.3697 
        0.39888         103.628         85.4884 
       0.405048         101.076         82.7586 
       0.411186         98.7278         80.1965 
       0.417313           95.82         77.7835 
       0.423458         93.5308         75.4956 
       0.429607         91.1289          73.316 
       0.435692         88.1426         71.2422 
       0.441815         87.1318          69.222 
       0.447964         85.6276          67.256 
       0.454126         81.9209         65.3463 
       0.460267         80.7659         63.5069 
       0.466387         78.8444         61.7452 
        0.47254         77.5089         60.0497 
       0.478662         76.3127         58.4361 
       0.484765         74.0978         56.8955 
       0.490885         72.5905         55.4139 
       0.497035         71.6433         53.9813 
       0.503198         69.6777         52.5954 
       0.509342         67.9891         51.2571 
       0.515458         66.8098         49.9669 
       0.521598         65.8148         48.7141 
       0.527764          64.587         47.4989 
       0.533884         63.4996          46.335 
           0.54         62.1655         45.2129 
       0.546137         61.3709         44.1266 
       0.552299         60.4369         43.0747 
       0.558452         58.7034         42.0609 
       0.564573         57.7122         41.0854 
       0.570708         56.9542         40.1382 
       0.576825         55.7984         39.2224 
       0.582926         54.6771         38.3366 
       0.589034         53.4321         37.4768 
       0.595184         52.7861         36.6382 
       0.601379         51.9886         35.8204 
       0.607522         50.8066         35.0351 
       0.613639         50.5459         34.2773 
       0.619772         49.2781         33.5406 
       0.625918          48.968         32.8244 
       0.632068         48.2345         32.1288 
       0.638161         47.3933         31.4596 
         0.6443          46.565         30.8048 
       0.650464         45.8414         30.1663 
       0.656582         45.4713         29.5508 
       0.662703         44.5523         28.9524 
       0.668861         43.9029         28.3675 
       0.675024         43.2335         27.7985 
       0.681124         42.5007         27.2511 
       0.687237         41.7826         26.7175 
       0.693381         41.4684         26.1959 
       0.699536         40.5492         25.6874 
       0.705665         40.6385         25.1947 
       0.711789         39.5991         24.7155 
       0.717957          39.166         24.2456 
        0.72409         38.6331         23.7906 
       0.730186         38.0387         23.3502 
       0.736317         37.7627         22.9187 
       0.742472         37.1022         22.4965 
       0.748622         36.7951         22.0856 
        0.75476          36.251         21.6858 
       0.760888         35.6991         21.2967 
       0.767043         35.3119         20.9156 
       0.773185         34.7733         20.5448 
       0.779291         34.6156         20.1852 
       0.785407         34.2408         19.8337 
       0.791564         33.6398         19.4885 
       0.797719         32.9705         19.1517 
       0.803834         32.9314         18.8251 
       0.809972         32.5405          18.505 
       0.816124         31.8879         18.1917 
       0.822261         31.6729         17.8865 
       0.828378         31.4163         17.5894 
       0.834502         31.0559         17.2988 
       0.840667         30.7109         17.0129 
       0.846816         30.2186         16.7344 
       0.852925         29.9593         16.4639 
       0.859047         29.6014         16.1989 
       0.865192         29.3359         15.9389 
       0.871341          29.179         15.6845 
       0.877463         28.6043         15.4368 
       0.883569         28.3351         15.1951 
       0.889708         28.0411         14.9575 
       0.895864         27.8005         14.7243 
       0.902008         27.5786         14.4966 
       0.908149         27.2902          14.274 
       0.914301         27.1899         14.0557 
       0.920448         26.6664         13.8422 
       0.926574          26.483         13.6339 
       0.932687         26.2021         13.4304 
       0.938823         25.8542         13.2303 
       0.944975         25.6747         13.0339 
       0.951105         25.4471         12.8422 
       0.957225          25.153         12.6547 
       0.963368           25.03         12.4703 
       0.969511         24.7977         12.2897 
       0.975621          24.601         12.1136 
       0.981748         24.2492         11.9405 
       0.987916         24.1296         11.7698 
        0.99406         23.8642         11.6031 
        1.00019         23.5764         11.4399 
        1.00632         23.4655         11.2801 
        1.01246         23.2941         11.1231 
        1.01859         22.9438         10.9693 
        1.02471         22.9008         10.8187 
        1.03085         22.6829         10.6704 
        1.03698         22.3277         10.5252 
        1.04314          22.197         10.3821 
        1.04929          21.979         10.2421 
        1.05541         21.7559         10.1051 
        1.06154          21.655          9.9704 
        1.06769         21.5159         9.83793 
        1.07382         21.2796         9.70832 
        1.07993         21.1816         9.58135 
        1.08607          20.905         9.45614 
        1.09222         20.8099         9.33305 
        1.09836         20.5562         9.21232 
        1.10449         20.4487         9.09387 
        1.11063         20.2064         8.97739 
        1.11677         20.1443         8.86301 
         1.1229         20.0383         8.75083 
        1.12903         19.7717         8.64051 
        1.13518         19.5845         8.53201 
        1.14131         19.5372         8.42544 
        1.14745         19.3726         8.32077 
        1.15359         19.2678         8.21786 
        1.15973         19.0627         8.11666 
        1.16584         18.8332         8.01763 
        1.17197         18.8384         7.92012 
        1.17811         18.6104         7.82394 
        1.18424         18.4595         7.72965 
        1.19038         18.4005         7.63664 
        1.19652         18.2549         7.54521 
        1.20267         18.1049         7.45528 
        1.20881         18.0053         7.36684 
        1.21495         17.8833         7.27999 
        1.22108         17.7226         7.19456 
         1.2272         17.5582         7.11071 
        1.23334          17.469         7.02801 
        1.23949         17.3052         6.94644 
        1.24562          17.256          6.8664 
        1.25174          17.148         6.78774 
        1.25789         17.0114         6.71009 
        1.26402         16.9444          6.6338 
        1.27014         16.7677         6.55889 
        1.27628         16.5986         6.48491 
        1.28244         16.5521         6.41194 
        1.28858         16.5004          6.3402 
        1.29471         16.3362         6.26972 
        1.30084         16.2028         6.20038 
        1.30697         16.1152         6.13199 
        1.31312         15.9599         6.06454 
        1.31925         15.8629         5.99832 
        1.32537         15.8204         5.93315 
        1.33151         15.6809         5.86872 
        1.33765         15.6062          5.8053 
        1.34378         15.5182         5.74293 
        1.34992         15.3405         5.68145 
        1.35606         15.3194         5.62073 
         1.3622         15.2214         5.56102 
        1.36833         15.0901         5.50231 
        1.37445         15.0485         5.44449 
        1.38059         14.9425         5.38733 
        1.38675         14.7842         5.33086 
        1.39288         14.7532         5.27542 
        1.39901         14.6295          5.2208 
        1.40515         14.5688         5.16684 
         1.4113         14.4656         5.11366 
        1.41742         14.3618         5.06144 
        1.42355         14.2973         5.00985 
         1.4297         14.2313         4.95883 
        1.43585         14.1799         4.90854 
        1.44198         14.0485         4.85914 
        1.44809         13.9819         4.81052 
        1.45423         13.8951         4.76239 
        1.46036          13.828         4.71501 
        1.46649         13.7616         4.66825 
        1.47263         13.6411          4.6221 
        1.47877         13.5759         4.57659 
        1.48491          13.518         4.53162 
        1.49104         13.4584         4.48735 
        1.49718         13.3564         4.44365 
        1.50333         13.3017         4.40045 
        1.50947         13.2287         4.35792 
         1.5156         13.1217         4.31602 
        1.52172         13.0665         4.27468 
        1.52787         12.9964         4.23379 
          1.534         12.9095         4.19349 
        1.54013         12.8232         4.15375 
        1.54627         12.7571         4.11447 
        1.55241         12.7036         4.07568 
        1.55855         12.6372         4.03746 
        1.56467         12.5629         3.99983 
         1.5708         12.5468         3.96258 
        1.57695         12.4301         3.92574 
        1.58308         12.3848         3.88947 
        1.58922         12.3229         3.85362 
        1.59535         12.2603         3.81825 
         1.6015         12.1728         3.78327 
        1.60764         12.1149         3.74875 
        1.61376         12.0841         3.71475 
        1.61989          11.977         3.68115 
        1.62604         11.9647          3.6479 
        1.63218         11.8853         3.61507 
        1.63831         11.8424         3.58273 
        1.64444         11.7435         3.55077 
        1.65059         11.6876         3.51912 
        1.65673           11.67          3.4879 
        1.66285         11.5517         3.45714 
        1.66898         11.5369         3.42674 
        1.67512         11.4789         3.39666 
        1.68127         11.4124          3.3669 
         1.6874         11.3583         3.33757 
        1.69353         11.2946         3.30861 
        1.69967         11.2426         3.27992 
        1.70581         11.1929         3.25159 
        1.71193         11.1227          3.2237 
        1.71806         11.0984         3.19608 
        1.72421         11.0161         3.16873 
        1.73035         10.9855         3.14173 
        1.73649         10.9354         3.11505 
        1.74262         10.8928         3.08871 
        1.74876          10.844         3.06265 
        1.75489         10.7882         3.03695 
        1.76101          10.707         3.01155 
        1.76715         10.7081         2.98641 
        1.77329         10.6176         2.96152 
        1.77943          10.568         2.93691 
        1.78557          10.546         2.91262 
        1.79171         10.5075          2.8886 
        1.79785          10.422         2.86484 
        1.80399         10.3865         2.84136 
        1.81012         10.3514         2.81818 
        1.81625         10.2897         2.79526 
        1.82239         10.2509         2.77257 
        1.82853         10.1793         2.75013 
        1.83466         10.1461         2.72797 
        1.84078         10.0801         2.70608 
        1.84692         10.0725         2.68439 
        1.85306         10.0135         2.66292 
         1.8592         9.96597         2.64171 
        1.86533         9.93375         2.62074 
        1.87147         9.88869         2.59998 
        1.87761          9.8547         2.57944 
        1.88375         9.77836         2.55914 
        1.88988          9.7774         2.53908 
        1.89601         9.72215         2.51923 
        1.90215         9.66746         2.49957 
        1.90829         9.62908         2.48014 
        1.91442         9.58871          2.4609 
        1.92056          9.5578          2.4419 
         1.9267         9.51302         2.42307 
        1.93284         9.46003         2.40443 
        1.93897         9.41145         2.38602 
        1.94509         9.38237         2.36785 
        1.95123         9.34929         2.34981 
        1.95737         9.30872         2.33196 
        1.96349         9.26952         2.31434 
        1.96964         9.22007         2.29684 
        1.97578         9.18716         2.27953 
        1.98192         9.14054         2.26242 
        1.98805         9.11823         2.24549 
        1.99419         9.07247         2.22873 
        2.00033         9.04853         2.21214 
        2.00647         9.00844         2.19572 
         2.0126         8.95353          2.1795 
        2.01874         8.92718         2.16341 
        2.02488         8.87564         2.14748 
        2.03101         8.86022         2.13173 
        2.03714         8.81436         2.11616 
        2.04328         8.78551         2.10072 
        2.04941         8.73385         2.08545 
        2.05554         8.71904         2.07035 
        2.06167         8.66776         2.05537 
        2.06781         8.65474         2.04054 
        2.07396         8.62181         2.02584 
        2.08009         8.57982         2.01131 
        2.08622         8.52376         1.99693 
        2.09237         8.52036         1.98267 
        2.09851          8.4915         1.96854 
        2.10464         8.44332         1.95458 
        2.11077         8.39659         1.94077 
        2.11691         8.36525         1.92706 
        2.12305         8.34234         1.91348 
        2.12918         8.31934         1.90007 
        2.13531         8.28024         1.88678 
        2.14145         8.25216          1.8736 
         2.1476         8.21521         1.86052 
        2.15372         8.18671         1.84763 
        2.15985         8.16588         1.83485 
        2.16599          8.1275         1.82216 
        2.17213         8.10401          1.8096 
        2.17827         8.07301         1.79716 
         2.1844         8.03853         1.78485 
        2.19054         7.98733         1.77266 
        2.19666         7.97792         1.76059 
         2.2028         7.94449         1.74863 
        2.20893         7.92696         1.73677 
        2.21508         7.88012         1.72501 
        2.22122         7.84496         1.71335 
        2.22736         7.82735         1.70183 
        2.23349         7.78709         1.69041 
        2.23962         7.77686         1.67909 
        2.24577         7.73422         1.66787 
         2.2519         7.71557         1.65677 
        2.25802         7.68036         1.64578 
        2.26417          7.6534         1.63487 
        2.27031         7.62128         1.62404 
        2.27644         7.59627         1.61335 
        2.28257         7.57373         1.60275 
        2.28872         7.53905         1.59222 
        2.29486         7.51734         1.58179 
        2.30099         7.50591         1.57148 
        2.30712         7.47376         1.56126 
        2.31326         7.42934         1.55111 
         2.3194         7.40269         1.54105 
        2.32553          7.3913          1.5311 
        2.33166         7.35615         1.52125 
         2.3378         7.33079         1.51146 
        2.34394         7.30664         1.50176 
        2.35007         7.27164         1.49216 
        2.35619          7.2448         1.48265 
        2.36233         7.21865         1.47321 
        2.36848         7.20614         1.46383 
        2.37462         7.17976         1.45454 
        2.38075         7.14733         1.44535 
        2.38689          7.1249         1.43623 
        2.39303         7.09572         1.42719 
        2.39916         7.07745         1.41824 
        2.40529         7.05706         1.40937 
        2.41143         7.02304         1.40056 
        2.41757         7.01913         1.39183 
         2.4237         6.98462         1.38318 
        2.42983         6.95839         1.37462 
        2.43598         6.94674          1.3661 
        2.44211         6.91155         1.35766 
        2.44823         6.89617         1.34932 
        2.45437         6.87422         1.34103 
        2.46052         6.83341          1.3328 
        2.46665          6.8182         1.32465 
        2.47279         6.79037         1.31657 
        2.47892         6.76249         1.30856 
        2.48507         6.74419          1.3006 
         2.4912         6.72067         1.29273 
