# k  (h/Mpc)    Pcb(k)  (Mpc/h)^3    Pcb_linear(k)  (Mpc/h)^3
     0.00783031         12683.6         12862.2 
       0.013688         15750.8           15630 
       0.019231         15643.6         15615.2 
      0.0249154         14020.7           14284 
      0.0312784         12181.3         12295.5 
      0.0375637         10494.9         10492.3 
      0.0433917         9061.47         9206.99 
      0.0492413         8232.14            8291 
      0.0555754          7376.2         7592.15 
      0.0619321         7028.15         7024.27 
       0.067871         6327.44         6491.63 
      0.0738098         5764.05         5907.37 
      0.0800417         5087.42         5257.42 
      0.0862327         4552.86          4635.5 
      0.0921407         4123.02         4121.85 
      0.0982031         3690.66         3708.15 
       0.104506         3479.61         3398.87 
       0.110769         3243.99         3183.78 
       0.116806         3058.86         3022.33 
       0.122832            2912         2868.24 
       0.129052         2684.88         2691.56 
       0.135211         2511.75         2493.79 
       0.141259         2367.11         2289.14 
       0.147318         2204.39         2092.78 
       0.153489         2014.01         1918.92 
       0.159709         1904.85         1779.35 
       0.165845         1834.43         1675.44 
       0.171974         1738.78         1596.27 
       0.178125         1660.29         1529.21 
       0.184229          1591.6         1463.78 
        0.19034          1490.7         1392.62 
       0.196428         1452.94         1314.99 
       0.202534          1392.2         1233.94 
       0.208729         1318.12         1154.35 
       0.214876         1253.61         1083.39 
       0.220989         1210.74         1023.62 
       0.227147          1156.5         974.278 
        0.23329         1112.22         933.492 
       0.239377         1091.84         897.854 
       0.245482         1021.16         863.521 
       0.251667         1012.74         827.892 
       0.257832         972.128         790.882 
       0.263955         938.144         753.493 
       0.270079         903.055         717.007 
        0.27624         891.529         682.854 
       0.282372         854.196         652.406 
        0.28843         840.597          625.96 
       0.294538         798.301         602.436 
       0.300721         794.679         580.803 
        0.30691         759.876         560.302 
       0.313033         744.938         540.343 
       0.319153         726.461         520.424 
       0.325316          703.62         500.455 
        0.33145         684.861         481.083 
       0.337538         674.467         462.766 
       0.343633         655.065         445.688 
       0.349808         632.187         429.782 
       0.355968         627.877         415.202 
       0.362074         618.534         401.779 
       0.368217         600.561         388.972 
       0.374374         575.288         376.593 
       0.380519         573.737         364.525 
       0.386598         558.522         352.839 
       0.392688         555.935         341.466 
        0.39888         539.512         330.332 
       0.405048         529.394         319.784 
       0.411186          521.02         309.884 
       0.417313         510.671          300.56 
       0.423458         501.337         291.719 
       0.429607         493.083         283.297 
       0.435692         481.326         275.283 
       0.441815         477.358         267.477 
       0.447964         467.405         259.881 
       0.454126          457.29         252.501 
       0.460267         449.166         245.394 
       0.466387         444.128         238.587 
        0.47254         436.001         232.035 
       0.478662         434.655           225.8 
       0.484765         420.206         219.847 
       0.490885          416.52         214.122 
       0.497035         408.815         208.586 
       0.503198         403.265         203.231 
       0.509342         400.131          198.06 
       0.515458         396.055         193.075 
       0.521598         386.709         188.233 
       0.527764         380.071         183.538 
       0.533884         377.828          179.04 
           0.54         372.552         174.705 
       0.546137         370.914         170.507 
       0.552299         363.381         166.443 
       0.558452         361.527         162.525 
       0.564573         356.193         158.756 
       0.570708         350.099         155.096 
       0.576825             343         151.557 
       0.582926         341.323         148.134 
       0.589034         338.209         144.812 
       0.595184         335.095         141.571 
       0.601379         330.596         138.411 
       0.607522         325.599         135.377 
       0.613639         324.086         132.449 
       0.619772         316.569         129.602 
       0.625918         315.621         126.835 
       0.632068         310.649         124.147 
       0.638161         309.435         121.561 
         0.6443         304.107         119.031 
       0.650464         301.489         116.564 
       0.656582         299.551         114.185 
       0.662703          298.13         111.873 
       0.668861         292.732         109.613 
       0.675024          289.69         107.415 
       0.681124         287.979         105.299 
       0.687237         284.846         103.237 
       0.693381         280.654         101.222 
       0.699536         278.093          99.257 
       0.705665         275.902         97.3532 
       0.711789         273.762         95.5016 
       0.717957         271.908         93.6859 
        0.72409         269.165         91.9279 
       0.730186         266.214         90.2261 
       0.736317         263.361         88.5586 
       0.742472         262.066         86.9275 
       0.748622         259.572         85.3394 
        0.75476         257.139         83.7948 
       0.760888         254.105         82.2912 
       0.767043         254.259         80.8188 
       0.773185         251.083          79.386 
       0.779291         246.737         77.9963 
       0.785407         246.195         76.6382 
       0.791564         243.479         75.3042 
       0.797719         240.977         74.0029 
       0.803834         239.414         72.7408 
       0.809972          238.21         71.5039 
       0.816124         237.885         70.2933 
       0.822261         234.563         69.1142 
       0.828378         232.561          67.966 
       0.834502         231.777         66.8431 
       0.840667         228.751         65.7386 
       0.846816         227.167         64.6623 
       0.852925         226.143         63.6171 
       0.859047         224.181         62.5931 
       0.865192         221.757         61.5884 
       0.871341         220.014         60.6053 
       0.877463         218.594         59.6483 
       0.883569         217.814         58.7145 
       0.889708         215.452         57.7961 
       0.895864         213.058         56.8952 
       0.902008         212.218         56.0156 
       0.908149          211.36         55.1552 
       0.914301         208.542         54.3116 
       0.920448         207.225         53.4867 
       0.926574         205.813         52.6819 
       0.932687         205.802         51.8955 
       0.938823          203.25         51.1224 
       0.944975         201.841         50.3634 
       0.951105          200.84         49.6227 
       0.957225         199.071         48.8982 
       0.963368         196.618         48.1859 
       0.969511          195.92         47.4878 
       0.975621         194.188         46.8074 
       0.981748         194.258         46.1387 
       0.987916          192.18         45.4789 
        0.99406         190.251         44.8346 
        1.00019         190.248         44.2042 
        1.00632         188.506         43.5865 
        1.01246         187.164         42.9799 
        1.01859         186.723         42.3858 
        1.02471         184.488         41.8038 
        1.03085          182.67         41.2308 
        1.03698         181.954         40.6698 
        1.04314         180.364         40.1169 
        1.04929         179.316         39.5756 
        1.05541         179.159         39.0466 
        1.06154         177.268          38.526 
        1.06769         177.106         38.0141 
        1.07382         175.508         37.5133 
        1.07993         173.997         37.0227 
        1.08607         173.331         36.5388 
        1.09222         172.473         36.0632 
        1.09836         170.981         35.5967 
        1.10449         169.275          35.139 
        1.11063         167.897          34.689 
        1.11677         167.695          34.247 
         1.1229          166.28         33.8135 
        1.12903         165.486         33.3872 
        1.13518         164.715          32.968 
        1.14131         163.119         32.5562 
        1.14745         162.861         32.1517 
        1.15359         161.597         31.7541 
        1.15973         160.781         31.3631 
        1.16584         159.166         30.9804 
        1.17197          158.69         30.6036 
        1.17811         157.661          30.232 
        1.18424         156.846         29.8676 
        1.19038         156.387         29.5082 
        1.19652         155.062         29.1549 
        1.20267         154.469         28.8074 
        1.20881         153.026         28.4657 
        1.21495         152.429         28.1301 
        1.22108         151.543            27.8 
         1.2272         150.223          27.476 
        1.23334         149.728         27.1565 
        1.23949         148.622         26.8413 
        1.24562         147.889          26.532 
        1.25174         146.495         26.2281 
        1.25789         145.786          25.928 
        1.26402         144.824         25.6332 
        1.27014         143.891         25.3438 
        1.27628         143.386         25.0579 
        1.28244         142.952          24.776 
        1.28858         141.988         24.4988 
        1.29471         140.499         24.2264 
        1.30084         140.211         23.9585 
        1.30697         139.088         23.6942 
        1.31312         138.552         23.4336 
        1.31925         137.585         23.1777 
        1.32537         136.937         22.9259 
        1.33151         135.659         22.6769 
        1.33765         135.232         22.4319 
        1.34378         134.487         22.1909 
        1.34992         134.068         21.9533 
        1.35606          133.49         21.7187 
         1.3622         132.258         21.4879 
        1.36833         131.337         21.2611 
        1.37445         130.671         21.0377 
        1.38059         130.066         20.8168 
        1.38675           129.3         20.5986 
        1.39288         128.844         20.3844 
        1.39901         128.391         20.1734 
        1.40515         127.212         19.9648 
         1.4113         126.322         19.7594 
        1.41742         125.781         19.5576 
        1.42355         125.002         19.3582 
         1.4297         124.421         19.1611 
        1.43585         123.351         18.9668 
        1.44198         123.092         18.7759 
        1.44809         122.322          18.588 
        1.45423         121.614          18.402 
        1.46036         121.061         18.2189 
        1.46649         120.148         18.0383 
        1.47263         119.572         17.8599 
        1.47877         119.167         17.6841 
        1.48491         117.891         17.5103 
        1.49104          117.83         17.3393 
        1.49718         116.753         17.1704 
        1.50333         116.342         17.0035 
        1.50947         115.839         16.8392 
         1.5156         115.002         16.6773 
        1.52172         114.307         16.5175 
        1.52787         113.762         16.3595 
          1.534         113.125         16.2038 
        1.54013         112.453         16.0502 
        1.54627         112.024         15.8984 
        1.55241         111.142         15.7486 
        1.55855         110.573         15.6009 
        1.56467           110.3         15.4555 
         1.5708         109.389         15.3115 
        1.57695         109.173         15.1692 
        1.58308         108.341          15.029 
        1.58922         108.048         14.8905 
        1.59535         107.262         14.7538 
         1.6015         106.767         14.6187 
        1.60764         106.173         14.4853 
        1.61376         105.903         14.3539 
        1.61989         105.001         14.2241 
        1.62604         104.653         14.0956 
        1.63218         104.128         13.9687 
        1.63831         103.233         13.8438 
        1.64444         102.977         13.7203 
        1.65059          102.43          13.598 
        1.65673         101.472         13.4774 
        1.66285          101.31         13.3585 
        1.66898         100.784         13.2411 
        1.67512         100.224         13.1248 
        1.68127          99.648         13.0098 
         1.6874         98.8975         12.8965 
        1.69353         98.4691         12.7846 
        1.69967         98.1249         12.6737 
        1.70581         97.5741         12.5642 
        1.71193         97.2128         12.4565 
        1.71806         96.6003         12.3497 
        1.72421         95.8985         12.2441 
        1.73035         95.6181         12.1397 
        1.73649         95.0076         12.0367 
        1.74262         94.4243         11.9349 
        1.74876         94.1531         11.8342 
        1.75489         93.3601         11.7349 
        1.76101          92.996         11.6367 
        1.76715         92.3769         11.5396 
        1.77329         92.1394         11.4434 
        1.77943          91.339         11.3483 
        1.78557         91.1963         11.2545 
        1.79171         90.4262         11.1616 
        1.79785          90.036         11.0699 
        1.80399         89.5947         10.9791 
        1.81012         89.2461         10.8895 
        1.81625         88.6901          10.801 
        1.82239         88.3868         10.7133 
        1.82853         87.9521         10.6266 
        1.83466         87.3241          10.541 
        1.84078         87.1325         10.4564 
        1.84692         86.4524         10.3726 
        1.85306         85.9657         10.2896 
         1.8592         85.6554         10.2076 
        1.86533         85.1249         10.1266 
        1.87147         84.5964         10.0464 
        1.87761         84.2987         9.96703 
        1.88375         83.7515          9.8886 
        1.88988         83.3537         9.81109 
        1.89601         82.9198         9.73438 
        1.90215         82.5386         9.65843 
        1.90829         82.0378         9.58332 
        1.91442         81.7394         9.50901 
        1.92056         81.0941         9.43556 
         1.9267         80.8723         9.36281 
        1.93284         80.3566         9.29079 
        1.93897         79.9946         9.21966 
        1.94509         79.6902         9.14943 
        1.95123         79.2284         9.07976 
        1.95737           78.79         9.01076 
        1.96349         78.2694         8.94267 
        1.96964         77.9329         8.87508 
        1.97578         77.5751         8.80816 
        1.98192         77.3248         8.74207 
        1.98805         76.6719         8.67665 
        1.99419         76.3431          8.6119 
        2.00033         76.1044         8.54778 
        2.00647         75.6334         8.48434 
         2.0126         75.1882         8.42165 
        2.01874         74.6822         8.35949 
        2.02488         74.3716         8.29791 
        2.03101         74.0402         8.23707 
        2.03714         73.5397         8.17689 
        2.04328         73.2997         8.11725 
        2.04941         72.9306         8.05826 
        2.05554         72.6667         7.99989 
        2.06167         72.1729         7.94203 
        2.06781         71.7272         7.88472 
        2.07396         71.3817         7.82791 
        2.08009         71.1292         7.77175 
        2.08622         70.7737         7.71621 
        2.09237         70.3653          7.6611 
        2.09851         70.1743         7.60652 
        2.10464         69.6727         7.55256 
        2.11077         69.3385         7.49919 
        2.11691         69.0415         7.44622 
        2.12305         68.6048         7.39376 
        2.12918         68.3007         7.34193 
        2.13531         67.9264         7.29059 
        2.14145         67.5321         7.23963 
         2.1476           67.22          7.1891 
        2.15372         66.9476          7.1393 
        2.15985           66.54         7.08993 
        2.16599         66.2494         7.04088 
        2.17213         65.9399         6.99236 
        2.17827         65.5793          6.9443 
         2.1844         65.1939         6.89673 
        2.19054         65.0075          6.8496 
        2.19666         64.5979         6.80298 
         2.2028         64.5265         6.75675 
        2.20893         64.0293         6.71092 
        2.21508         63.6865         6.66548 
        2.22122         63.4191         6.62044 
        2.22736         63.0962         6.57591 
        2.23349         62.7077          6.5318 
        2.23962         62.3422         6.48807 
        2.24577         62.0691         6.44471 
         2.2519         61.8219          6.4018 
        2.25802          61.544         6.35936 
        2.26417         61.1071         6.31718 
        2.27031         60.8595         6.27535 
        2.27644         60.6435         6.23402 
        2.28257         60.2834         6.19306 
        2.28872         59.9655         6.15239 
        2.29486         59.5797          6.1121 
        2.30099         59.3202         6.07226 
        2.30712         59.1751         6.03275 
        2.31326         58.8306         5.99352 
         2.3194         58.4981         5.95467 
        2.32553         58.1943         5.91623 
        2.33166         57.8429         5.87814 
         2.3378         57.5565         5.84034 
        2.34394         57.3074         5.80285 
        2.35007         56.9896         5.76575 
        2.35619         56.7597         5.72902 
        2.36233         56.5486         5.69252 
        2.36848         56.2182         5.65627 
        2.37462         55.8594          5.6204 
        2.38075         55.7429         5.58489 
        2.38689         55.3959         5.54965 
        2.39303         55.1016         5.51472 
        2.39916         54.8986         5.48013 
        2.40529         54.6377         5.44583 
        2.41143         54.3695         5.41181 
        2.41757         54.0371         5.37806 
         2.4237         53.8964         5.34467 
        2.42983         53.4587         5.31156 
        2.43598         53.2393         5.27864 
        2.44211         53.0552         5.24606 
        2.44823         52.7647         5.21383 
        2.45437         52.4508         5.18178 
        2.46052         52.1997         5.14997 
        2.46665         52.0127         5.11849 
        2.47279         51.6883         5.08728 
        2.47892         51.4975         5.05631 
        2.48507         51.2288         5.02557 
         2.4912         51.0543         4.99515 
